,,CRD,CRD,CRD,CLIRAD,CLIRAD,CLIRAD
,,flug,fldg,fnetg,flug,fldg,fnetg
pressure,level,,,,,,
0.0,1,-22.50385,0.0,-22.50385,,,
1e-08,1,,,,-22.584901000000002,1.8878624999999999e-06,-22.584899
0.0006244,2,-22.50385,2.6696037e-07,-22.50385,-22.584901000000002,2.1058306000000003e-06,-22.584899
0.0008759,3,-22.50385,3.7984169999999996e-07,-22.50385,-22.584901000000002,2.1990073999999998e-06,-22.584899
0.0012286,4,-22.50385,5.5443228e-07,-22.50385,-22.584901000000002,2.3432652e-06,-22.584899
0.0017234,5,-22.503851,8.2467034e-07,-22.50385,-22.584901000000002,2.5644532000000002e-06,-22.584899
0.0024174,6,-22.503851,1.2425071e-06,-22.503849,-22.584901000000002,2.9033354e-06,-22.584898000000003
0.0033909,7,-22.503851,1.8880237e-06,-22.503849,-22.584901000000002,3.4221803e-06,-22.584898000000003
0.0047565,8,-22.503851,2.8844112000000003e-06,-22.503848,-22.584901000000002,4.221454700000001e-06,-22.584897
0.006672,9,-22.503851,4.4209393e-06,-22.503847,-22.584901000000002,5.4556528e-06,-22.584896
0.0093589,10,-22.503851,6.7883887e-06,-22.503844,-22.584901000000002,7.3573520999999995e-06,-22.584894
0.0131278,11,-22.503851,1.0432262000000001e-05,-22.50384,-22.5849,1.0280653e-05,-22.584889999999998
0.0184145,12,-22.503851,1.6030225e-05,-22.503834,-22.5849,1.4766515e-05,-22.584885
0.0258302,13,-22.50385,2.4612734999999998e-05,-22.503825,-22.584898000000003,2.1642231000000002e-05,-22.584876
0.0362323,14,-22.503848,3.7744189e-05,-22.50381,-22.584895,3.2165041e-05,-22.584863000000002
0.0508234,15,-22.503844,5.7587133999999996e-05,-22.503785999999998,-22.584889999999998,4.8089232e-05,-22.584842000000002
0.0712906,16,-22.503838000000002,8.695253800000001e-05,-22.503751,-22.584882999999998,7.175325300000001e-05,-22.584811
0.1,17,-22.503828,0.00012993812,-22.503698,-22.584871,0.00010660701999999999,-22.584765
0.140271,18,-22.503812,0.00019264266,-22.50362,-22.584853,0.00015786372999999999,-22.584695
0.19676,19,-22.503787,0.0002837467,-22.503503,-22.584825,0.00023310673999999998,-22.584592
0.275997,20,-22.503747,0.00041543557,-22.503331,-22.584782,0.00034331972,-22.584439
0.3871,21,-22.503682,0.0006045245700000001,-22.503078,-22.584716,0.00050429383,-22.584211
0.5431,22,-22.50358,0.00087290912,-22.502707,-22.584614000000002,0.00073822136,-22.583875
0.7617,23,-22.503441,0.0012188951,-22.502222,-22.584476000000002,0.0010515302,-22.583424
1.0685,24,-22.503284,0.0016112704999999999,-22.501673,-22.58432,0.0014259191000000001,-22.582894
1.4988,25,-22.503124,0.0020338457,-22.501089999999998,-22.584158,0.0018526276000000001,-22.582304999999998
2.1024,26,-22.502966,0.0024840898,-22.500482,-22.583995,0.0023324525,-22.581663
2.949,27,-22.502819,0.0029607643,-22.499858,-22.583842,0.0028643075,-22.580976999999997
4.1366,28,-22.502698000000002,0.003466919,-22.499230999999998,-22.583712,0.003445455,-22.580267000000003
5.8025,29,-22.502613,0.004030915,-22.498582,-22.583616,0.0040908832,-22.579525
8.1392,30,-22.502563000000002,0.0047171989000000004,-22.497846,-22.583554,0.0048431546,-22.578711
11.417,31,-22.502562,0.0056000574,-22.496962,-22.583543,0.0057472323,-22.577796
16.0147,32,-22.502654,0.006764229300000001,-22.495889000000002,-22.583624,0.0068517776,-22.576772000000002
22.464,33,-22.502901,0.008338104,-22.494563,-22.583854000000002,0.0082429331,-22.575611
31.5105,34,-22.503342,0.010608133,-22.492732999999998,-22.584265,0.010137621,-22.574127
44.2001,35,-22.503978,0.014064705,-22.489914000000002,-22.584862,0.012907779,-22.571954
62.0,36,-22.50486,0.01930052,-22.48556,-22.58571,0.017042983,-22.568667
85.775,37,-22.506018,0.026737494,-22.47928,-22.586868,0.022935847000000002,-22.563932
109.55,38,-22.507181,0.034475622000000004,-22.472704999999998,-22.588067000000002,0.029126245,-22.558941
133.325,39,-22.508445000000002,0.042378939000000004,-22.466066,-22.589378,0.03551604,-22.553862
157.1,40,-22.510405,0.053207450999999996,-22.457197,-22.591379,0.044375841,-22.547003
180.875,41,-22.513272,0.06710503799999999,-22.446167000000003,-22.594258,0.055936797999999996,-22.538321
204.65,42,-22.517351,0.08435865599999999,-22.432992000000002,-22.598288,0.070554108,-22.527734
228.425,43,-22.522665,0.10393807,-22.418726,-22.603476,0.087448654,-22.516026999999998
252.2,44,-22.52944,0.12567216,-22.403768,-22.610001999999998,0.10648319,-22.503519
275.975,45,-22.538152,0.14989616,-22.388254999999997,-22.61824,0.12789511,-22.490345
299.75,46,-22.549366,0.17708733,-22.372278,-22.628585,0.1520341,-22.476551
323.525,47,-22.563085,0.20921552,-22.353869,-22.640997,0.18047506,-22.460522
347.3,48,-22.578597,0.24978286,-22.328815,-22.654926,0.21603867,-22.438888000000002
371.075,49,-22.595229,0.3014663,-22.293762,-22.669895999999998,0.26114635,-22.40875
394.85,50,-22.617135,0.38160211,-22.235533,-22.689788,0.33138732,-22.3584
418.625,51,-22.647347,0.50628126,-22.141065,-22.717471,0.4416665,-22.275804
442.4,52,-22.68672,0.68166236,-22.005058,-22.75379,0.59869292,-22.155098000000002
466.175,53,-22.735659,0.9102145,-21.825444,-22.799187,0.80691426,-21.992272
489.95,54,-22.793996,1.1915093,-21.602487,-22.853526000000002,1.0673926999999999,-21.786133
513.725,55,-22.86105,1.5236501,-21.3374,-22.916178,1.3766569,-21.539521
537.5,56,-22.935642,1.9038907999999999,-21.031751,-22.986058,1.7290891,-21.256969
561.275,57,-23.016135000000002,2.3286952999999997,-20.68744,-23.061605,2.1213330000000004,-20.940272
585.05,58,-23.100619000000002,2.7940769,-20.306542,-23.140971,2.5532307999999997,-20.58774
608.825,59,-23.187003,3.2951797,-19.891824,-23.222122,3.0242717999999997,-20.19785
632.6,60,-23.273246,3.8264952000000005,-19.446751000000003,-23.303085,3.530571,-19.772514
656.375,61,-23.357479,4.3819324,-18.975545999999998,-23.382085,4.0655654000000006,-19.316519
680.15,62,-23.438084,4.9551028,-18.482981,-23.457608,4.6211515,-18.836456
703.925,63,-23.513701,5.539709200000001,-17.973992000000003,-23.528242000000002,5.189374099999999,-18.338867999999998
727.7,64,-23.583119,6.1297402000000005,-17.453379,-23.592773,5.7637865,-17.828985999999997
751.475,65,-23.645127,6.719779700000001,-16.925348,-23.649992,6.3395183,-17.310473
775.25,66,-23.698321,7.3052394,-16.393082,-23.698536999999998,6.9128002,-16.785737
799.025,67,-23.740817,7.881940299999999,-15.858877,-23.736651000000002,7.4800151,-16.256636
822.8,68,-23.769965,8.445947199999999,-15.324017999999999,-23.761978,8.038600599999999,-15.723377
846.575,69,-23.782364,8.992663499999999,-14.789701,-23.771496,8.584096800000001,-15.187399
870.35,70,-23.77532,9.514768199999999,-14.260551999999999,-23.763048,9.108591699999998,-14.654456
894.125,71,-23.750038,10.003105999999999,-13.746932999999999,-23.7381,9.60253,-14.135570000000001
917.9,72,-23.713141,10.446553,-13.266589000000002,-23.702983,10.054267999999999,-13.648714000000002
941.675,73,-23.673177,10.839957,-12.833219999999999,-23.665633,10.457727,-13.207906
965.45,74,-23.636333,11.189067999999999,-12.447265,-23.631732,10.817658,-12.814074
989.225,75,-23.606798,11.500925,-12.105872,-23.605019,11.140346000000001,-12.464673
1013.0,76,-23.591138,11.781514999999999,-11.809623,-23.59114,11.431329,-12.159811
