,,CRD,CRD,CRD,CLIRAD,CLIRAD,CLIRAD
,,flug,fldg,fnetg,flug,fldg,fnetg
pressure,level,,,,,,
0.0,1,-5.4826722000000006,0.0,-5.4826722000000006,,,
1e-08,1,,,,-5.3961873,2.1438178e-06,-5.3961852
0.0006244,2,-5.4826766,1.418647e-05,-5.482662400000001,-5.396194,2.8532829e-05,-5.3961654
0.0008759,3,-5.482678599999999,1.6506576e-05,-5.4826621,-5.396197,3.4151105e-05,-5.3961628
0.0012286,4,-5.482681299999999,1.9460261e-05,-5.4826618,-5.3962009,4.0025498e-05,-5.396160900000001
0.0017234,5,-5.4826847999999995,2.3098786e-05,-5.4826616999999995,-5.3962061,4.5796974e-05,-5.396160299999999
0.0024174,6,-5.4826896,2.7550892e-05,-5.482662,-5.3962129999999995,5.1301757e-05,-5.3961616999999995
0.0033909,7,-5.4826959,3.3021636e-05,-5.4826629,-5.3962222,5.6842573e-05,-5.3961654
0.0047565,8,-5.482704599999999,3.9759229e-05,-5.4826648,-5.3962347,6.3156398e-05,-5.3961714999999995
0.006672,9,-5.4827163,4.803371199999999e-05,-5.482668299999999,-5.3962515,7.107350099999999e-05,-5.3961805
0.0093589,10,-5.482732599999999,5.8130981000000004e-05,-5.4826745,-5.3962747,8.1583145e-05,-5.3961931
0.0131278,11,-5.4827553,7.032656299999999e-05,-5.482685,-5.3963068,9.5751462e-05,-5.396211
0.0184145,12,-5.4827874,8.4881512e-05,-5.4827025,-5.396351999999999,0.00011518826999999999,-5.3962368
0.0258302,13,-5.482833599999999,0.00010207405999999999,-5.4827315,-5.3964169,0.00014171262,-5.3962752
0.0362323,14,-5.4829019,0.00012227864,-5.4827796,-5.3965121,0.00017774561000000002,-5.396334400000001
0.0508234,15,-5.4830111,0.00014632637,-5.4828647,-5.3966606,0.0002261184,-5.3964344
0.0712906,16,-5.4831981,0.00018506763,-5.483013099999999,-5.3969027,0.00030114073,-5.3966015
0.1,17,-5.4835117,0.00027670129,-5.483235,-5.3972829,0.00045216837999999997,-5.3968308
0.140271,18,-5.4840082,0.00048184288,-5.4835263,-5.3978477,0.0007677790700000001,-5.3970799000000005
0.19676,19,-5.4847809000000005,0.00087995267,-5.483901,-5.3986757,0.0013648357,-5.3973108
0.275997,20,-5.4859578,0.0016343215,-5.4843235,-5.3998726999999995,0.00241107,-5.3974616
0.3871,21,-5.4876797999999996,0.003057421,-5.4846223,-5.4015567,0.004118590399999999,-5.3974381
0.5431,22,-5.489986599999999,0.005734445,-5.484252099999999,-5.4037875,0.0068062522,-5.396981299999999
0.7617,23,-5.4919513,0.010719195,-5.4812321,-5.4056685,0.011151343000000001,-5.3945171
1.0685,24,-5.4901767999999995,0.018673853,-5.471503,-5.4038258,0.017595847,-5.38623
1.4988,25,-5.483984099999999,0.026041467999999998,-5.4579426,-5.397973,0.023856717000000003,-5.3741163
2.1024,26,-5.4768542,0.029566535,-5.447287599999999,-5.3912052,0.028776292999999998,-5.3624289
2.949,27,-5.4700082000000005,0.030842054,-5.439166200000001,-5.3844889,0.033415651,-5.3510732
4.1366,28,-5.4637355,0.030873868,-5.4328616,-5.3779956,0.036766597000000005,-5.341229
5.8025,29,-5.4581851,0.030058846,-5.4281262,-5.3719124,0.036812816,-5.3350995
8.1392,30,-5.4532774,0.028681149,-5.4245962,-5.366178700000001,0.033140847,-5.3330378
11.417,31,-5.4488805000000005,0.026763922000000002,-5.4221166,-5.3607364,0.028855805,-5.3318806
16.0147,32,-5.4451769,0.024133976,-5.421042900000001,-5.355921599999999,0.026755262999999998,-5.3291664
22.464,33,-5.4426872,0.020971691,-5.4217154999999995,-5.3524275999999995,0.025661935,-5.3267657
31.5105,34,-5.4414713,0.018214808,-5.4232565,-5.350239599999999,0.024005229,-5.326234400000001
44.2001,35,-5.441209,0.016402385,-5.4248066,-5.3489182,0.021263877999999996,-5.3276543
62.0,36,-5.4423474,0.015091231,-5.427256099999999,-5.348976599999999,0.018224305,-5.3307523
85.775,37,-5.4459704,0.01414813,-5.4318222,-5.3519554000000005,0.016225192,-5.3357302
109.55,38,-5.4510559999999995,0.014004661000000002,-5.4370513,-5.3568794,0.015781434,-5.341098000000001
133.325,39,-5.4570692,0.014511045,-5.442558099999999,-5.362917700000001,0.016326163,-5.3465916
157.1,40,-5.464546599999999,0.015081238,-5.4494654,-5.3706133000000005,0.016988648999999998,-5.3536247
180.875,41,-5.474803400000001,0.01614108,-5.4586623,-5.3815751,0.018310333,-5.3632647
204.65,42,-5.4883073,0.019186625,-5.4691207,-5.3962666,0.022007112000000002,-5.3742595
228.425,43,-5.504178,0.025090453999999998,-5.4790875,-5.413582900000001,0.028760411,-5.3848225
252.2,44,-5.5220970000000005,0.033183783,-5.488913200000001,-5.4330972,0.037566357,-5.3955307999999995
275.975,45,-5.5420397,0.043196704,-5.498843,-5.454797900000001,0.04818947,-5.4066084000000005
299.75,46,-5.5639935,0.055150066,-5.5088434,-5.4786612,0.060780932,-5.4178802
323.525,47,-5.587932299999999,0.069098851,-5.5188334999999995,-5.504599099999999,0.075474762,-5.4291243
347.3,48,-5.613811599999999,0.085097639,-5.5287139000000005,-5.532603,0.092414736,-5.4401883
371.075,49,-5.6415627,0.10318946,-5.5383733,-5.562621099999999,0.11173701,-5.4508841
394.85,50,-5.6710796,0.1233973,-5.5476823,-5.594517,0.13355254,-5.4609644
418.625,51,-5.7022026,0.1457021,-5.556500499999999,-5.6281614,0.15790047,-5.4702609
442.4,52,-5.734756900000001,0.17003187,-5.564725,-5.663377400000001,0.18479976,-5.4785775999999995
466.175,53,-5.768596700000001,0.19627604,-5.572320599999999,-5.7000775,0.21413334,-5.4859442000000005
489.95,54,-5.8036445,0.22433372,-5.579310700000001,-5.738135,0.24586153,-5.4922734
513.725,55,-5.8398768,0.25416517,-5.5857116,-5.7775679,0.27987614,-5.4976918
537.5,56,-5.8772805,0.28579253,-5.5914879,-5.8183843,0.31622744,-5.5021568
561.275,57,-5.915825099999999,0.31926214,-5.5965629,-5.8605236,0.35491461,-5.505609
585.05,58,-5.955463099999999,0.35461458,-5.6008485,-5.9039314,0.39588937,-5.508042
608.825,59,-5.9961316,0.39188061,-5.6042509,-5.9485359,0.43911358,-5.5094223
632.6,60,-6.037753400000001,0.43108074,-5.6066727,-5.9942785,0.4845439,-5.5097346
656.375,61,-6.0802434000000005,0.47222591,-5.6080175,-6.041003400000001,0.53219708,-5.5088063
680.15,62,-6.1235005,0.51532155,-5.608179,-6.0885658,0.58198181,-5.506583999999999
703.925,63,-6.1674017999999995,0.5603693,-5.6070325,-6.136806099999999,0.63381093,-5.502995200000001
727.7,64,-6.2117857,0.60736107,-5.6044247,-6.1855588,0.68762936,-5.4979294
751.475,65,-6.2564120999999995,0.65626214,-5.6001499,-6.2343335,0.74344011,-5.4908934
775.25,66,-6.300886599999999,0.70697427,-5.5939123,-6.2828218,0.80094292,-5.481878900000001
799.025,67,-6.344525099999999,0.75925196,-5.5852731,-6.330091,0.86004527,-5.4700458
822.8,68,-6.3863289000000005,0.81252762,-5.5738012999999995,-6.375432099999999,0.92000702,-5.455425099999999
846.575,69,-6.425370099999999,0.86580611,-5.559563900000001,-6.4178143,0.98007815,-5.4377362
870.35,70,-6.4614051,0.91799056,-5.543414599999999,-6.457058,1.0389301,-5.4181279
894.125,71,-6.4949544,0.96856469,-5.5263897,-6.4935633,1.0959118,-5.3976515
917.9,72,-6.5266981,1.0178444,-5.508853599999999,-6.527737,1.151116,-5.376621
941.675,73,-6.557002499999999,1.0664891,-5.4905134,-6.5595699000000005,1.2050208999999998,-5.3545489
965.45,74,-6.5858351,1.1150268,-5.4708083,-6.588573200000001,1.2580945,-5.3304787000000005
989.225,75,-6.6126092000000005,1.1637712,-5.448837999999999,-6.613780499999999,1.3106882,-5.303092299999999
1013.0,76,-6.6254523,1.212891,-5.4125614,-6.625452,1.3630578000000002,-5.2623942
