,,CRD,CRD,CRD,CLIRAD,CLIRAD,CLIRAD
,,flug,fldg,fnetg,flug,fldg,fnetg
pressure,level,,,,,,
0.0,1,-19.704359,0.0,-19.704359,,,
1e-08,1,,,,-19.975005,2.1628761999999998e-07,-19.975005
0.0006244,2,-19.704394,4.9973595999999994e-05,-19.704344,-19.979553,0.010586578000000001,-19.968966
0.0008759,3,-19.704407999999997,7.089536299999999e-05,-19.704337,-19.990115,0.035694124,-19.954421
0.0012286,4,-19.704428,0.00010317163000000001,-19.704325,-20.003687,0.070685703,-19.933001
0.0017234,5,-19.704454000000002,0.00015283969999999999,-19.704301,-20.020966,0.11875874,-19.902207
0.0024174,6,-19.704489000000002,0.00022888584,-19.70426,-20.042778,0.18374472,-19.859033
0.0033909,7,-19.704535999999997,0.00034462267,-19.704192000000003,-20.070052,0.2702335,-19.799819
0.0047565,8,-19.704598,0.0005194239599999999,-19.704079,-20.103803,0.38386299,-19.71994
0.006672,9,-19.704678,0.00078089533,-19.703897,-20.145073,0.53191838,-19.613154
0.0093589,10,-19.70478,0.0011675434,-19.703612,-20.194825,0.72416769,-19.470657
0.0131278,11,-19.704905,0.0017312764,-19.703174,-20.253733,0.97342662,-19.280306
0.0184145,12,-19.705054999999998,0.0025392609,-19.702516,-20.321799,1.2948145,-19.026985
0.0258302,13,-19.705226,0.0036739292,-19.701552,-20.397498000000002,1.7036641,-18.693834
0.0362323,14,-19.705404,0.0052295972999999996,-19.700174,-20.47508,2.2144633,-18.260617
0.0508234,15,-19.70557,0.007280609300000001,-19.698289000000003,-20.548863,2.8372971000000002,-17.711566
0.0712906,16,-19.70572,0.009852758199999999,-19.695868,-20.621215,3.5811674,-17.040047
0.1,17,-19.705842,0.01297487,-19.692867,-20.693075,4.4696672,-16.223408
0.140271,18,-19.705889000000003,0.016717748,-19.689172,-20.756164000000002,5.5309745999999995,-15.22519
0.19676,19,-19.705778,0.021201084,-19.684576999999997,-20.794866,6.776776400000001,-14.018089999999999
0.275997,20,-19.70535,0.026640471000000002,-19.678709,-20.778893,8.2044944,-12.574399
0.3871,21,-19.704261,0.033408027,-19.670853,-20.637504999999997,9.8213163,-10.816189
0.5431,22,-19.701519,0.04203996,-19.659479,-20.136865,11.642352,-8.4945133
0.7617,23,-19.696762,0.051764008,-19.644998,-19.194536,13.380002,-5.8145348
1.0685,24,-19.691157999999998,0.061348539,-19.629808999999998,-18.091878,14.654459,-3.4374195
1.4988,25,-19.685283,0.07141793099999999,-19.613865,-16.972711,15.485313,-1.4873983
2.1024,26,-19.679195999999997,0.082899307,-19.596297,-15.858707999999998,15.883833,0.02512521
2.949,27,-19.673094,0.09633217699999999,-19.576762,-14.785175,15.795841000000001,1.0106667999999999
4.1366,28,-19.667661,0.11215429,-19.555507000000002,-13.874579999999998,15.224545999999998,1.3499659
5.8025,29,-19.663487,0.13169858,-19.531788,-13.208785,14.375388000000001,1.1666034
8.1392,30,-19.660313000000002,0.15747346,-19.502839,-12.675396000000001,13.558176999999999,0.88278118
11.417,31,-19.658307,0.19141,-19.466897,-12.189269,12.863689,0.67442043
16.0147,32,-19.659022,0.23499652,-19.424025,-11.786469,12.270052,0.48358212
22.464,33,-19.666156,0.29095928,-19.375197,-11.676905,11.806483,0.12957787
31.5105,34,-19.682185,0.36823326,-19.313952,-11.885191,11.676363,-0.20882882
44.2001,35,-19.706317000000002,0.4805479,-19.225769,-12.169648,11.884045,-0.28560234
62.0,36,-19.740216,0.63904935,-19.101167,-12.455469,12.169466,-0.28600299
85.775,37,-19.78456,0.84807276,-18.936488,-12.673511999999999,12.455457000000001,-0.21805492
109.55,38,-19.827966,1.0524189,-18.775547,-12.753534,12.673511999999999,-0.08002182
133.325,39,-19.873644,1.2467108,-18.626932999999998,-12.756621,12.753534,-0.0030875056
157.1,40,-19.925573999999997,1.4329037,-18.49267,-12.756644,12.756621,-2.3041060000000003e-05
180.875,41,-19.984614,1.6139309,-18.370683,-12.756644,12.756644,-3.5527136999999994e-15
204.65,42,-20.05183,1.7910078999999999,-18.260822,-12.756644,12.756644,0.0
228.425,43,-20.128452,1.9637388999999998,-18.164713,-12.756598,12.756644,4.60821e-05
252.2,44,-20.216624,2.1323484,-18.084276000000003,-12.75775,12.756598,-0.0011520525
275.975,45,-20.320791,2.2975058999999995,-18.023286,-12.793441,12.75775,-0.035690586
299.75,46,-20.450006,2.4622862999999997,-17.987719,-13.068772000000001,12.793441,-0.27533147
323.525,47,-20.603526000000002,2.6450823,-17.958444,-13.671930999999999,13.068772000000001,-0.60315934
347.3,48,-20.767431,2.8667860000000003,-17.900645,-14.396772,13.671930999999999,-0.72484057
371.075,49,-20.93303,3.1281871,-17.804842999999998,-15.112136999999999,14.396772,-0.71536525
394.85,50,-21.102454,3.4359870000000003,-17.666467,-15.807823,15.112136999999999,-0.69568535
418.625,51,-21.277473,3.79875,-17.478723000000002,-16.484256,15.807823,-0.6764338
442.4,52,-21.457989,4.217531,-17.240458,-17.140981,16.484256,-0.65672452
466.175,53,-21.643504999999998,4.6907738,-16.952731,-17.777929999999998,17.140981,-0.63694859
489.95,54,-21.833021,5.2148825,-16.618139000000003,-18.393655,17.777929999999998,-0.61572534
513.725,55,-22.025087,5.7852166,-16.23987,-18.986601,18.393655,-0.59294643
537.5,56,-22.21783,6.396484200000001,-15.821345,-19.554432000000002,18.986601,-0.56783036
561.275,57,-22.409039,7.0427181,-15.366320000000002,-20.09434,19.554432000000002,-0.5399082
585.05,58,-22.596367,7.7176116,-14.878756,-20.603308,20.09434,-0.50896858
608.825,59,-22.777484,8.4141956,-14.363289000000002,-21.07863,20.603308,-0.47532171
632.6,60,-22.950331,9.125141000000001,-13.82519,-21.519215,21.07863,-0.44058463
656.375,61,-23.11324,9.8429609,-13.270279,-21.924702,21.519215,-0.40548676
680.15,62,-23.264951,10.560386,-12.704564,-22.297210999999997,21.924702,-0.37250938
703.925,63,-23.404539,11.27089,-12.13365,-22.639096,22.297210999999997,-0.34188495
727.7,64,-23.531185999999998,11.968814,-11.562372,-22.953991000000002,22.639096,-0.31489507
751.475,65,-23.643853,12.649609,-10.994244,-23.24533,22.953991000000002,-0.29133935
775.25,66,-23.740921,13.309845000000001,-10.431076,-23.515325,23.24533,-0.26999427
799.025,67,-23.819685999999997,13.946664000000002,-9.873022099999998,-23.763145,23.515325,-0.24782016
822.8,68,-23.875817,14.55725,-9.318566699999998,-23.981513,23.763145,-0.21836833
846.575,69,-23.903351999999998,15.137343,-8.766009,-24.15031,23.981513,-0.16879741
870.35,70,-23.897257999999997,15.678526999999999,-8.2187304,-24.240404,24.15031,-0.090093746
894.125,71,-23.859091,16.168614,-7.6904773,-24.234791,24.240404,0.005613219799999999
917.9,72,-23.79963,16.594893,-7.204737299999999,-24.148554,24.234791,0.08623661699999999
941.675,73,-23.733078,16.953998000000002,-6.7790798,-24.015123000000003,24.148554,0.1334318
965.45,74,-23.670242000000002,17.254626000000002,-6.4156151,-23.86176,24.015123000000003,0.15336291
989.225,75,-23.618825,17.507544,-6.111280799999999,-23.702136,23.86176,0.15962408
1013.0,76,-23.591138,17.721819,-5.8693191,-23.59114,23.702136,0.11099557
