,,CRD,CRD,CRD,CLIRAD,CLIRAD,CLIRAD
,,flug,fldg,fnetg,flug,fldg,fnetg
pressure,level,,,,,,
0.0,1,-6.7094298,0.0,-6.7094298,,,
1e-08,1,,,,-6.6095254,2.1835821e-06,-6.609523299999999
0.0006244,2,-6.709434299999999,1.4498912e-05,-6.7094198,-6.6095326000000005,2.9062804e-05,-6.609503599999999
0.0008759,3,-6.7094364,1.6904314999999998e-05,-6.709419500000001,-6.6095359,3.4825751e-05,-6.6095011
0.0012286,4,-6.7094391,2.0004161e-05,-6.709419099999999,-6.609540099999999,4.0946424000000004e-05,-6.6094992
0.0017234,5,-6.709442699999999,2.3823948e-05,-6.7094189,-6.609545699999999,4.7008659e-05,-6.6094987000000005
0.0024174,6,-6.7094475000000005,2.8510918e-05,-6.7094190000000005,-6.6095531,5.2843599e-05,-6.609500200000001
0.0033909,7,-6.709453900000001,3.4286867e-05,-6.7094195999999995,-6.6095629,5.8758947e-05,-6.6095041
0.0047565,8,-6.7094625,4.1421134e-05,-6.709421000000001,-6.6095761,6.5468582e-05,-6.6095106
0.006672,9,-6.7094742,5.0209802e-05,-6.7094239,-6.609594,7.3929775e-05,-6.6095201
0.0093589,10,-6.7094902,6.0968107e-05,-6.709429300000001,-6.6096186,8.506861300000001e-05,-6.6095335
0.0131278,11,-6.709512599999999,7.4005221e-05,-6.7094385999999995,-6.6096525999999995,0.00010017009,-6.6095524999999995
0.0184145,12,-6.7095442,8.9619139e-05,-6.7094546,-6.609700599999999,0.00012082395,-6.6095797
0.0258302,13,-6.7095898,0.00010812933999999999,-6.7094816999999995,-6.6097693,0.00014909246,-6.6096202
0.0362323,14,-6.7096582,0.00012997285,-6.7095283,-6.6098707999999995,0.00018758406000000003,-6.609683199999999
0.0508234,15,-6.709772200000001,0.00015701906,-6.7096151,-6.6100326,0.00024049412999999997,-6.6097921
0.0712906,16,-6.709966099999999,0.00020873109,-6.709757400000001,-6.6102913,0.00033252773,-6.6099588
0.1,17,-6.710276299999999,0.0003278701,-6.7099484,-6.6106797,0.00052069426,-6.6101589999999995
0.140271,18,-6.7107516,0.00056659535,-6.710185000000001,-6.611241900000001,0.0008865935499999999,-6.6103553
0.19676,19,-6.711466400000001,0.0010079223,-6.7104585000000005,-6.612045200000001,0.0015453679999999999,-6.6104997999999995
0.275997,20,-6.712509,0.0018154488,-6.7106936,-6.613171799999999,0.002651152,-6.610520599999999
0.3871,21,-6.713937599999999,0.0032915527000000003,-6.7106461,-6.6146882,0.0043899166,-6.610298299999999
0.5431,22,-6.7154949,0.0059883498,-6.709506599999999,-6.6163819,0.0070531165000000005,-6.6093287
0.7617,23,-6.7154617,0.010580448999999999,-6.704881299999999,-6.616385799999999,0.01096966,-6.605416099999999
1.0685,24,-6.7129438,0.015655231000000002,-6.6972886,-6.613892,0.014821498,-6.5990705
1.4988,25,-6.709107700000001,0.019368975,-6.6897387,-6.6101570999999995,0.01808403,-6.5920731
2.1024,26,-6.7043742,0.021958595,-6.682415600000001,-6.6055306,0.021822515,-6.583708099999999
2.949,27,-6.699594800000001,0.023244702000000003,-6.676350099999999,-6.600707400000001,0.02559268,-6.575114699999999
4.1366,28,-6.6950382,0.023723375,-6.6713149000000005,-6.5958397,0.028687393999999998,-6.5671523
5.8025,29,-6.6907341,0.023629689,-6.667104400000001,-6.5909745,0.029512352000000002,-6.5614621
8.1392,30,-6.6867427,0.022932581,-6.6638101999999995,-6.5861350000000005,0.027239798,-6.5588952
11.417,31,-6.683156599999999,0.021558958,-6.6615977,-6.581487299999999,0.023908735,-6.5575785
16.0147,32,-6.680098200000001,0.019496473,-6.660601700000001,-6.5772629,0.022139442999999998,-6.5551235
22.464,33,-6.6777166,0.016893016,-6.660823599999999,-6.5736674,0.021166545,-6.5525008
31.5105,34,-6.6761432,0.014108083,-6.6620351,-6.570723599999999,0.019114512,-6.551609099999999
44.2001,35,-6.675254499999999,0.011481856,-6.6637727,-6.568098599999999,0.015185836999999999,-6.5529128
62.0,36,-6.676157099999999,0.0086024753,-6.6675547,-6.5671277,0.010040165,-6.5570875
85.775,37,-6.680320200000001,0.005994495,-6.6743257,-6.5701522,0.0061359504,-6.5640163000000005
109.55,38,-6.686934,0.0047876596,-6.682146400000001,-6.5766705000000005,0.0047871604,-6.5718834
133.325,39,-6.696104300000001,0.0052719683,-6.6908323,-6.5865114,0.005930035,-6.5805812999999995
157.1,40,-6.7073788,0.0076984320999999994,-6.6996804,-6.598691499999999,0.009365515100000001,-6.589326
180.875,41,-6.7208497000000005,0.011593265,-6.7092564,-6.6132442,0.01408998,-6.5991542
204.65,42,-6.736595200000001,0.017078991,-6.719516199999999,-6.6302313999999996,0.020254526999999998,-6.6099769
228.425,43,-6.754672599999999,0.02430162,-6.7303709000000005,-6.6497757,0.028044892000000002,-6.621730800000001
252.2,44,-6.7751107,0.033398928,-6.7417117,-6.671847200000001,0.037657177,-6.634189999999999
275.975,45,-6.797929300000001,0.044498258,-6.753431,-6.696490400000001,0.049252317000000004,-6.647238099999999
299.75,46,-6.8231344,0.057715261,-6.765419199999999,-6.723718300000001,0.063045725,-6.6606726
323.525,47,-6.8507201,0.073152761,-6.777567299999999,-6.7534443,0.07921449900000001,-6.674229799999999
347.3,48,-6.880669,0.09090234800000001,-6.7897666,-6.785711500000001,0.0979258,-6.6877857
371.075,49,-6.912954300000001,0.1110453,-6.801908999999999,-6.820474900000001,0.11936834,-6.7011065
394.85,50,-6.947537599999999,0.13365222,-6.8138853,-6.857687400000001,0.1436681,-6.7140193
418.625,51,-6.9843668,0.15878627,-6.825580499999999,-6.8972994000000005,0.17097539,-6.726324000000001
442.4,52,-7.0233886,0.1865049,-6.8368837,-6.9392725,0.20142615,-6.7378463
466.175,53,-7.0645394,0.21686055,-6.8476789,-6.983509700000001,0.23509645,-6.7484133
489.95,54,-7.1077493,0.24989846,-6.8578508000000005,-7.0299935,0.27202757,-6.7579659
513.725,55,-7.152938900000001,0.28566143,-6.867277400000001,-7.078486,0.31234586,-6.766140099999999
537.5,56,-7.2000131,0.32418896,-6.875824099999999,-7.1290026,0.35598767,-6.773014900000001
561.275,57,-7.248862700000001,0.36551247,-6.883350200000001,-7.1813284,0.4030622,-6.7782662
585.05,58,-7.2993492,0.40965982,-6.8896893,-7.2352524,0.45350056,-6.7817519
608.825,59,-7.351264200000001,0.45664666,-6.894617500000001,-7.2905123,0.50724444,-6.7832679
632.6,60,-7.4042490999999995,0.50643696,-6.8978121,-7.3467072,0.56420923,-6.7824979999999995
656.375,61,-7.4575821,0.55887321,-6.898708900000001,-7.4031674,0.62421847,-6.7789489000000005
680.15,62,-7.5099407000000005,0.61342319,-6.8965175,-7.458760000000001,0.68673336,-6.7720267000000005
703.925,63,-7.5596855,0.66881484,-6.8908705999999995,-7.512139200000001,0.75047833,-6.7616609
727.7,64,-7.6062323,0.72314404,-6.8830883,-7.563144800000001,0.81347108,-6.7496738
751.475,65,-7.6509356,0.77526167,-6.8756739,-7.6130702,0.87446835,-6.7386018
775.25,66,-7.696112599999999,0.82599895,-6.8701136,-7.6640690000000005,0.93373546,-6.7303336
799.025,67,-7.7435978,0.87754526,-6.8660526,-7.7177841,0.99301414,-6.724769900000001
822.8,68,-7.7939438999999995,0.93205834,-6.8618855,-7.774387700000001,1.0544162000000001,-6.7199714
846.575,69,-7.846479700000001,0.99066486,-6.8558148,-7.8330098,1.119055,-6.7139547
870.35,70,-7.900178200000001,1.053245,-6.8469332,-7.8926387,1.1870519,-6.7055868
894.125,71,-7.954225,1.1191594999999999,-6.8350655,-7.952030000000001,1.2582671,-6.693763000000001
917.9,72,-8.0080432,1.1878656,-6.8201777,-8.010151400000002,1.3321944,-6.677957000000001
941.675,73,-8.0611023,1.2590518,-6.802050500000001,-8.0660852,1.4085226,-6.6575625999999986
965.45,74,-8.1127163,1.3325448999999998,-6.7801714,-8.1180345,1.4873531,-6.6306814
989.225,75,-8.1614766,1.4082685,-6.753208,-8.1638123,1.5683655,-6.5954467999999995
1013.0,76,-8.1851397,1.4861697,-6.698969900000001,-8.185139999999999,1.6514526000000003,-6.533687400000001
