,,CRD,CRD,CRD,CLIRAD,CLIRAD,CLIRAD
,,flug,fldg,fnetg,flug,fldg,fnetg
pressure,level,,,,,,
0.0,1,-7.2920487000000005,0.0,-7.2920487000000005,,,
1e-08,1,,,,-7.1608856,1.8428252e-09,-7.1608856
0.0006244,2,-7.292063799999999,5.197835200000001e-06,-7.2920586,-7.1609011,3.4413245e-06,-7.1608977
0.0008759,3,-7.2920699,7.3005700999999996e-06,-7.292062599999999,-7.160907300000001,4.8423986e-06,-7.1609025
0.0012286,4,-7.2920783,1.0311827e-05,-7.2920679999999996,-7.160916,6.8584407e-06,-7.160909200000001
0.0017234,5,-7.2920901,1.4624896e-05,-7.2920755,-7.160928200000001,9.764283199999999e-06,-7.160918400000001
0.0024174,6,-7.292106599999999,2.0787857e-05,-7.2920858,-7.1609451,1.3949809e-05,-7.1609312
0.0033909,7,-7.2921296,2.9570614e-05,-7.2921,-7.160968899999999,1.9974626e-05,-7.1609489
0.0047565,8,-7.292161699999999,4.2042234e-05,-7.2921197,-7.161002099999999,2.8640955e-05,-7.1609734
0.006672,9,-7.292206599999999,5.9670464e-05,-7.2921469,-7.161048599999999,4.1087743e-05,-7.161007499999999
0.0093589,10,-7.292269500000001,8.444854100000001e-05,-7.292185000000001,-7.161113799999999,5.8940948e-05,-7.1610549
0.0131278,11,-7.2923579,0.00011903486,-7.292238799999999,-7.1612054,8.4479321e-05,-7.1611210000000005
0.0184145,12,-7.292482700000001,0.00016690069,-7.2923158,-7.161334599999999,0.00012091195,-7.1612137
0.0258302,13,-7.292660000000001,0.00023245990000000003,-7.2924276,-7.161517599999999,0.00017264346999999999,-7.1613449000000005
0.0362323,14,-7.2929147,0.00032114374,-7.2925935,-7.1617782000000005,0.00024567883,-7.1615325
0.0508234,15,-7.2932859,0.00043964145,-7.2928462,-7.1621527,0.00034811974,-7.1618046
0.0712906,16,-7.2938287,0.00060793894,-7.293220699999999,-7.16269,0.00049929059,-7.162190700000001
0.1,17,-7.294596,0.00089297634,-7.2937031,-7.163438900000001,0.0007570686200000001,-7.1626818
0.140271,18,-7.295633500000001,0.0014174139999999999,-7.294216099999999,-7.164444199999999,0.001233568,-7.1632107000000005
0.19676,19,-7.296999499999999,0.0023447426999999997,-7.294654799999999,-7.1657584000000005,0.0020948981,-7.163663499999999
0.275997,20,-7.2987322,0.003926874,-7.2948053,-7.1674103,0.0036022009,-7.163808099999999
0.3871,21,-7.300786,0.0065481351,-7.294237799999999,-7.1693398,0.0061484547,-7.1631913
0.5431,22,-7.302868400000001,0.010788581,-7.2920799,-7.171230499999999,0.010298881999999999,-7.160931599999999
0.7617,23,-7.303847900000001,0.017472348000000002,-7.2863755999999995,-7.171982300000001,0.016803986,-7.155178299999999
1.0685,24,-7.301338799999999,0.026840665,-7.2744981,-7.1694424,0.025854362000000002,-7.143588
1.4988,25,-7.295243400000001,0.03567503,-7.259568400000001,-7.1635231,0.034327819,-7.129195299999999
2.1024,26,-7.2881557,0.040709824,-7.247445900000001,-7.1566220000000005,0.039129059,-7.1174929
2.949,27,-7.2810106,0.042962915,-7.2380477,-7.149642,0.041735966,-7.107906
4.1366,28,-7.274020599999999,0.043942782,-7.230077799999999,-7.142790299999999,0.043583601,-7.0992067
5.8025,29,-7.2672569000000005,0.044749947000000005,-7.2225069,-7.1361312,0.044977659,-7.091153599999999
8.1392,30,-7.2605461,0.046241865,-7.2143043,-7.129427499999999,0.046481509000000004,-7.082946000000001
11.417,31,-7.253652099999999,0.048847444000000004,-7.2048047,-7.122407300000001,0.049009085,-7.073398200000001
16.0147,32,-7.2467666,0.052532336,-7.1942342,-7.1151919999999995,0.053277239000000004,-7.0619148
22.464,33,-7.2407452,0.057317127999999995,-7.1834281,-7.1086485,0.059178173,-7.0494704
31.5105,34,-7.236022599999999,0.06424666400000001,-7.171775900000001,-7.1032875,0.06741886,-7.035868600000001
44.2001,35,-7.2324383,0.074621456,-7.157816800000001,-7.099037200000001,0.079893293,-7.0191438999999995
62.0,36,-7.231724000000001,0.08852862199999999,-7.1431952999999995,-7.0978732,0.096101555,-7.001771700000001
85.775,37,-7.2383642,0.10574585,-7.132618400000001,-7.104822,0.11280272,-6.9920193
109.55,38,-7.251138799999999,0.12376394,-7.127374799999999,-7.1184655,0.12854287,-6.9899227
133.325,39,-7.2680150999999995,0.1438571,-7.124158,-7.1363489,0.14743332,-6.9889156
157.1,40,-7.2910515,0.16445886,-7.1265925999999995,-7.1607997999999995,0.16857871,-6.992221099999999
180.875,41,-7.3237826,0.18857317,-7.1352094,-7.195801400000001,0.19514919,-7.000652199999999
204.65,42,-7.3763084,0.23830626,-7.1380022,-7.2522865,0.25157746,-7.0007091
228.425,43,-7.479922599999999,0.38173658,-7.098186099999999,-7.3611148,0.41665358,-6.944461200000001
252.2,44,-7.651092200000001,0.66298783,-6.988104400000001,-7.5398716,0.73721503,-6.802656599999999
275.975,45,-7.9073812000000006,1.1086856,-6.798695599999999,-7.807336599999999,1.1687438,-6.6385928
299.75,46,-8.2684235,1.7301176999999999,-6.5383058,-8.1769784,1.7156218,-6.4613566
323.525,47,-8.7021702,2.442987,-6.2591832,-8.6152661,2.3921772999999997,-6.2230888
347.3,48,-9.1935121,3.2310267,-5.9624854,-9.109519,3.1812972999999998,-5.928221700000001
371.075,49,-9.7397085,4.0988303,-5.6408783,-9.6578639,4.0561702,-5.6016937
394.85,50,-10.336815,5.0404789,-5.2963365,-10.256149,4.9932601,-5.2628885
418.625,51,-10.979692,6.0442337,-4.9354586,-10.900298,5.9860857,-4.9142121
442.4,52,-11.663973,7.0951848,-4.568788400000001,-11.587058,7.0393308,-4.5477267
466.175,53,-12.378436,8.1658591,-4.2125764000000006,-12.305303,8.1353819,-4.1699215
489.95,54,-13.117582,9.2449564,-3.8726257000000004,-13.047846,9.261027,-3.7868190999999998
513.725,55,-13.88045,10.329466,-3.5509841,-13.81388,10.399502,-3.4143778
537.5,56,-14.666229000000001,11.417067,-3.2491624,-14.603876999999999,11.537678999999999,-3.0661984
561.275,57,-15.472945000000001,12.506064,-2.9668804,-15.414469,12.661009,-2.7534601000000003
585.05,58,-16.295676999999998,13.595167000000002,-2.7005103,-16.240053,13.76285,-2.4772027000000003
608.825,59,-17.144244,14.701560999999998,-2.4426834,-17.091098000000002,14.863373999999999,-2.2277242000000004
632.6,60,-18.017315,15.810954,-2.2063605,-17.967037,15.954004000000001,-2.0130331000000004
656.375,61,-18.91183,16.913081,-1.9987491000000002,-18.864109,17.03487,-1.8292395000000001
680.15,62,-19.825164,18.00391,-1.8212538,-19.779826999999997,18.108303,-1.6715248
703.925,63,-20.754569,19.08221,-1.6723589,-20.711951000000003,19.175245999999998,-1.5367045
727.7,64,-21.696946,20.148568,-1.5483777,-21.659146,20.235688,-1.423458
751.475,65,-22.647804999999998,21.203825,-1.4439796,-22.6132,21.289476999999998,-1.3237237
775.25,66,-23.599094,22.247506,-1.3515883,-23.570017,22.329492000000002,-1.2405252
799.025,67,-24.535263,23.275482,-1.2597805,-24.509132,23.354048000000002,-1.155084
822.8,68,-25.432016,24.275554,-1.1564626,-25.411461,24.346211,-1.0652495000000002
846.575,69,-26.266344,25.225619000000002,-1.0407254000000001,-26.249561,25.289476,-0.96008413
870.35,70,-27.033262,26.103614,-0.92964788,-27.019361,26.158479999999997,-0.86088148
894.125,71,-27.748513,26.905106,-0.84340614,-27.737128000000002,26.950764000000003,-0.78636465
917.9,72,-28.432977,27.646981,-0.78599536,-28.423911,27.684321999999998,-0.73958825
941.675,73,-29.10078,28.351926000000002,-0.74885414,-29.093899,28.382138,-0.71176056
965.45,74,-29.758638,29.036026,-0.72261198,-29.753837,29.060226,-0.69361099
989.225,75,-30.406736,29.708065,-0.6986714,-30.403959000000004,29.727140999999996,-0.67681802
1013.0,76,-30.729615999999996,30.372401,-0.35721553,-30.72962,30.386928,-0.3426922
