,,CRD,CRD,CRD,CLIRAD,CLIRAD,CLIRAD
,,flug,fldg,fnetg,flug,fldg,fnetg
pressure,level,,,,,,
0.0,1,-29.471371,0.0,-29.471371,,,
1e-08,1,,,,-29.569378999999998,1.7990986e-06,-29.569377000000003
0.0006244,2,-29.471371,2.5444215e-07,-29.471371,-29.569378999999998,2.0069822e-06,-29.569377000000003
0.0008759,3,-29.471371,3.5786246000000003e-07,-29.471371,-29.56938,2.0916887e-06,-29.569377000000003
0.0012286,4,-29.471371,5.057844e-07,-29.471371,-29.56938,2.2129551e-06,-29.569377000000003
0.0017234,5,-29.471371,7.1767764e-07,-29.471371,-29.56938,2.3864427e-06,-29.569377000000003
0.0024174,6,-29.471372,1.021134e-06,-29.471371,-29.56938,2.6345904e-06,-29.569377000000003
0.0033909,7,-29.471372,1.4557378e-06,-29.47137,-29.56938,2.9895992e-06,-29.569377000000003
0.0047565,8,-29.471372,2.0781379e-06,-29.47137,-29.56938,3.4975273e-06,-29.569377000000003
0.006672,9,-29.471373,2.9693777e-06,-29.47137,-29.569381,4.224162900000001e-06,-29.569377000000003
0.0093589,10,-29.471373999999997,4.245551e-06,-29.47137,-29.569382,5.2636829e-06,-29.569376000000002
0.0131278,11,-29.471375,6.072794e-06,-29.471369,-29.569382,6.751043599999999e-06,-29.569376000000002
0.0184145,12,-29.471377,8.6883325e-06,-29.471369,-29.569384000000003,8.8802115e-06,-29.569375
0.0258302,13,-29.47138,1.242354e-05,-29.471368,-29.569384999999997,1.1926679e-05,-29.569374
0.0362323,14,-29.471384000000004,1.7758873e-05,-29.471365999999996,-29.569388,1.6284283e-05,-29.569371999999998
0.0508234,15,-29.471389000000002,2.5381008e-05,-29.471364,-29.569390999999996,2.2522256000000003e-05,-29.569369000000002
0.0712906,16,-29.471396999999996,3.6720064e-05,-29.471359999999997,-29.569396,3.1826513e-05,-29.569364
0.1,17,-29.471407,5.5417965e-05,-29.471351000000002,-29.569402,4.7201574e-05,-29.569353999999997
0.140271,18,-29.471419,8.823483899999999e-05,-29.471331,-29.569408000000003,7.422890500000001e-05,-29.569334
0.19676,19,-29.471433,0.00014560079,-29.471287,-29.569412,0.00012161113000000001,-29.569290999999996
0.275997,20,-29.471444,0.00024489107000000006,-29.471199,-29.569411,0.00020407638,-29.569207000000002
0.3871,21,-29.471444,0.00041475701,-29.471028999999998,-29.569394,0.00034644687999999994,-29.569048
0.5431,22,-29.471414000000003,0.0007019209299999999,-29.470712,-29.569343,0.0005908006099999999,-29.568752000000003
0.7617,23,-29.471313000000002,0.0011783623,-29.470135,-29.569219,0.0010071834,-29.568212
1.0685,24,-29.471083,0.0019209684,-29.469162,-29.568971,0.0016783167,-29.567292
1.4988,25,-29.470724,0.0028914618,-29.467832,-29.568597999999998,0.0025997457,-29.565998999999998
2.1024,26,-29.470297,0.0039669816,-29.46633,-29.568157,0.0036894775,-29.564466999999997
2.949,27,-29.469832,0.0050983599,-29.464734000000004,-29.567671,0.0049057723,-29.562765000000002
4.1366,28,-29.469339,0.0062781727,-29.463061,-29.567152,0.0062228352,-29.560928999999998
5.8025,29,-29.46883,0.0075260310999999995,-29.461304,-29.566614,0.007619594499999999,-29.558994000000002
8.1392,30,-29.468309,0.0088994436,-29.459409,-29.566065999999996,0.0090948329,-29.556971
11.417,31,-29.467792,0.010484513,-29.457307,-29.565531,0.010669361,-29.554861
16.0147,32,-29.467332,0.012375401000000001,-29.454957,-29.565070000000002,0.012382909,-29.552687
22.464,33,-29.467028999999997,0.014690626000000002,-29.452338,-29.564788,0.014316892,-29.550471
31.5105,34,-29.466973,0.017666116000000003,-29.449306,-29.564784000000003,0.016667655,-29.548115999999997
44.2001,35,-29.467278999999998,0.02165503,-29.445624,-29.565184000000002,0.019735558,-29.545448999999998
62.0,36,-29.468242,0.026995557000000003,-29.441246000000003,-29.566265,0.023826075,-29.542439
85.775,37,-29.470253999999997,0.033797932999999995,-29.436456,-29.568337,0.029105822000000003,-29.539232000000002
109.55,38,-29.472795,0.040555388,-29.432240000000004,-29.570823999999998,0.034449122,-29.536375
133.325,39,-29.475685,0.047482164,-29.428203000000003,-29.573558000000002,0.039996391,-29.533561
157.1,40,-29.478906,0.054532461,-29.424374,-29.576494,0.045685477,-29.530808
180.875,41,-29.482499,0.062183422,-29.420315000000002,-29.579681,0.051897505,-29.527784000000004
204.65,42,-29.487828000000004,0.075407621,-29.412421000000002,-29.584384999999997,0.062644228,-29.521741
228.425,43,-29.500190000000003,0.11507614,-29.385114,-29.595565999999998,0.09574828199999999,-29.499817999999998
252.2,44,-29.523995000000003,0.20566957,-29.318326000000003,-29.617576,0.17493875,-29.442637
275.975,45,-29.564609,0.36943351,-29.195175,-29.655779,0.3224381,-29.333340999999997
299.75,46,-29.628513,0.62109015,-29.007422,-29.716639,0.55143476,-29.165204
323.525,47,-29.7099,0.9263533,-28.783547,-29.794389000000002,0.835588,-28.958801
347.3,48,-29.806195000000002,1.2794733,-28.526721000000002,-29.886619,1.1707678999999998,-28.715851
371.075,49,-29.917982000000002,1.6894901000000002,-28.228492,-29.99397,1.5572535,-28.436716999999998
394.85,50,-30.045627000000003,2.1634682,-27.882159,-30.116781,1.9953233,-28.121458
418.625,51,-30.189239,2.7071321,-27.482107,-30.255290000000002,2.4939649,-27.761325
442.4,52,-30.348964000000002,3.3253135,-27.02365,-30.409946,3.0683997000000005,-27.341546
466.175,53,-30.52185,4.0096168,-26.512233000000002,-30.577814,3.717043,-26.860771000000003
489.95,54,-30.70645,4.7590753,-25.947375,-30.757340999999997,4.4374975999999995,-26.319843
513.725,55,-30.902649,5.578115900000001,-25.324533,-30.94831,5.2287021,-25.719607999999997
537.5,56,-31.110156,6.4699953,-24.640161,-31.150913,6.0929150000000005,-25.057998
561.275,57,-31.328227000000002,7.4365647,-23.891662,-31.364319000000002,7.0316258000000005,-24.332693
585.05,58,-31.555413,8.4788181,-23.076595,-31.587061,8.0490729,-23.537988000000002
608.825,59,-31.799647999999998,9.643281199999999,-22.156366000000002,-31.827109000000004,9.1963827,-22.630726
632.6,60,-32.06116,10.925837,-21.135323,-32.084623,10.474508,-21.610115
656.375,61,-32.338299,12.30969,-20.02861,-32.358230999999996,11.87032,-20.487910999999997
680.15,62,-32.629269,13.776876000000001,-18.852394,-32.646376000000004,13.364291,-19.282085000000002
703.925,63,-32.93177,15.306932000000002,-17.624838,-32.946651,14.931251999999999,-18.015398
727.7,64,-33.243164,16.879403,-16.363761,-33.256296999999996,16.549357999999998,-16.706939000000002
751.475,65,-33.560198,18.47391,-15.086288,-33.571759,18.201144,-15.370614999999999
775.25,66,-33.878533000000004,20.07002,-13.808513,-33.888631,19.870333,-14.018297
799.025,67,-34.192322999999995,21.64782,-12.544503,-34.200781,21.538654,-12.662125999999999
822.8,68,-34.49458,23.187107,-11.307473,-34.501979999999996,23.185112,-11.316868
846.575,69,-34.779608,24.666526,-10.113081,-34.786709,24.779355,-10.007354
870.35,70,-35.04612,26.065649,-8.9804715,-35.053663,26.287396,-8.7662662
894.125,71,-35.297019,27.370407,-7.9266121,-35.305422,27.683203999999996,-7.622217599999999
917.9,72,-35.535404,28.576069,-6.959335,-35.544542,28.954527000000002,-6.590014599999999
941.675,73,-35.761451,29.684851000000002,-6.0765996,-35.770503999999995,30.10173,-5.6687744
965.45,74,-35.971087,30.701909000000004,-5.2691780999999995,-35.97837,31.133196,-4.8451740999999995
989.225,75,-36.152557,31.633639000000002,-4.5189174,-36.155457,32.061788,-4.093669
1013.0,76,-36.235408,32.486003000000004,-3.7494051,-36.235409999999995,32.900975,-3.3344351999999997
