,,CRD,CRD,CRD,CLIRAD,CLIRAD,CLIRAD
,,flug,fldg,fnetg,flug,fldg,fnetg
pressure,level,,,,,,
0.0,1,-31.956084999999998,0.0,-31.956084999999998,,,
1e-08,1,,,,-31.774476,5.8097473e-07,-31.774475
0.0006244,2,-31.956149,0.0005088085099999999,-31.955640999999996,-31.774533,0.00031323262,-31.77422
0.0008759,3,-31.956176,0.0006722409799999999,-31.955503999999998,-31.774556,0.00043293115,-31.774123
0.0012286,4,-31.95621,0.0008858193199999998,-31.955323999999997,-31.774585,0.0005996037,-31.773984999999996
0.0017234,5,-31.956251,0.0011612331,-31.955090000000002,-31.774621000000003,0.00082814477,-31.773792999999998
0.0024174,6,-31.956303000000002,0.0015116978,-31.954790999999997,-31.774665999999996,0.0011348152,-31.773531
0.0033909,7,-31.956365,0.0019524584,-31.954413,-31.774721999999997,0.0015353694,-31.773186
0.0047565,8,-31.956440999999998,0.0025006341,-31.953940000000003,-31.774789000000002,0.0020414267,-31.772747
0.006672,9,-31.956531,0.003174725,-31.953357,-31.774869,0.0026593538,-31.772209999999998
0.0093589,10,-31.956638,0.0039938471000000005,-31.952644,-31.774964,0.0033940399,-31.77157
0.0131278,11,-31.956763,0.0049770699,-31.951786,-31.775075,0.0042609332,-31.770814
0.0184145,12,-31.956905,0.0061433434,-31.950761,-31.7752,0.0053014066,-31.769899
0.0258302,13,-31.957061,0.007512340500000001,-31.949548999999998,-31.775338,0.006578349200000001,-31.768759000000003
0.0362323,14,-31.957219,0.0091062796,-31.948113,-31.775475,0.0081473868,-31.767327
0.0508234,15,-31.957365000000003,0.010935468,-31.946429,-31.775598,0.010007422,-31.765590999999997
0.0712906,16,-31.957507,0.013006838,-31.9445,-31.775713,0.012097291000000001,-31.763615
0.1,17,-31.95765,0.015385128999999999,-31.942265000000003,-31.775821,0.014391979,-31.761428999999996
0.140271,18,-31.957782,0.01820571,-31.939576000000002,-31.775903999999997,0.016998398,-31.758906
0.19676,19,-31.957871,0.021676426000000002,-31.936194,-31.775928000000004,0.020217244,-31.755710999999998
0.275997,20,-31.957852000000003,0.026131985,-31.931720000000002,-31.775821999999998,0.02449206,-31.75133
0.3871,21,-31.957563,0.0321083,-31.925454,-31.775415000000002,0.030297004,-31.745117999999998
0.5431,22,-31.956403,0.040397888,-31.916006,-31.774122,0.038177864,-31.735944
0.7617,23,-31.953962,0.05137309,-31.902589000000003,-31.771541999999997,0.048447535,-31.723094
1.0685,24,-31.950595,0.065411783,-31.885184000000002,-31.767978999999997,0.06217190400000001,-31.705807
1.4988,25,-31.946436,0.08392729800000001,-31.862509000000003,-31.763561,0.081751249,-31.68181
2.1024,26,-31.941329999999997,0.10874249,-31.832587,-31.758124,0.10903388,-31.64909
2.949,27,-31.935229999999997,0.14192968,-31.7933,-31.751672999999997,0.14466106,-31.607012
4.1366,28,-31.928697999999997,0.18622582,-31.742471999999996,-31.744790999999996,0.19093681,-31.553853999999998
5.8025,29,-31.922487,0.24619426,-31.676292999999998,-31.738328000000003,0.24941345,-31.488915000000002
8.1392,30,-31.916263,0.3290229,-31.58724,-31.731923,0.32656959,-31.405353
11.417,31,-31.909879999999998,0.44315973,-31.466721000000003,-31.725518,0.43544253,-31.290075
16.0147,32,-31.905028,0.5990364,-31.305992,-31.720923,0.58748342,-31.133440000000004
22.464,33,-31.907134000000003,0.81167288,-31.095461,-31.72365,0.79304305,-30.930607000000002
31.5105,34,-31.919628999999997,1.1080614,-30.811567999999998,-31.737222999999997,1.0854284,-30.651795
44.2001,35,-31.938689,1.5263697,-30.412319,-31.757594,1.5019858999999998,-30.255608000000002
62.0,36,-31.962525,2.1071853,-29.855339,-31.782878999999998,2.0740078,-29.708871000000002
85.775,37,-31.986509,2.8668075,-29.119701,-31.808202,2.8134095,-28.994792999999998
109.55,38,-32.000745,3.6054273,-28.395318,-31.823396000000002,3.508517,-28.314878999999998
133.325,39,-32.010448,4.3202067,-27.690241999999998,-31.834068,4.1657271,-27.668340999999998
157.1,40,-32.026163000000004,5.235769,-26.790394,-31.851336,5.0148148,-26.836522
180.875,41,-32.050748999999996,6.3063694,-25.744379000000002,-31.878207,6.0360785,-25.842128
204.65,42,-32.088263,7.4990234,-24.589239000000003,-31.918948999999998,7.1925295,-24.726419
228.425,43,-32.141282000000004,8.7086572,-23.432625,-31.976408000000003,8.3666278,-23.609780999999998
252.2,44,-32.21642,9.9112145,-22.305204999999997,-32.05728,9.5317985,-22.525482
275.975,45,-32.331992,11.111263000000001,-21.22073,-32.180679999999995,10.713676,-21.467003
299.75,46,-32.536817,12.314355,-20.222462,-32.395939,11.932591,-20.463348
323.525,47,-32.843203,13.5845,-19.258703,-32.713532,13.242698,-19.470834
347.3,48,-33.189403999999996,14.993979999999999,-18.195425,-33.071272,14.705223000000002,-18.366049
371.075,49,-33.528036,16.520111,-17.007925,-33.420452000000004,16.272981,-17.147471
394.85,50,-33.898236,18.432522,-15.465714000000002,-33.800992,18.202745999999998,-15.598246
418.625,51,-34.312306,20.745964999999998,-13.56634,-34.225590000000004,20.512781,-13.712809
442.4,52,-34.759574,23.230775,-11.528799000000001,-34.684787,23.039725,-11.645062
466.175,53,-35.229413,25.701261,-9.5281515,-35.166798,25.634556,-9.532242
489.95,54,-35.711501,28.037854,-7.673646499999999,-35.659593,28.090039,-7.5695546
513.725,55,-36.196484000000005,30.169834,-6.0266504,-36.152851,30.257261,-5.8955897
537.5,56,-36.675888,32.055478,-4.620410400000001,-36.639542999999996,32.146421999999994,-4.4931206
561.275,57,-37.142195,33.675759,-3.4664361000000006,-37.112296,33.800551,-3.3117447999999996
585.05,58,-37.589059000000006,35.03345,-2.5556092999999995,-37.564772,35.222502,-2.3422702
608.825,59,-38.011438,36.147686,-1.8637526000000002,-37.991809,36.388521000000004,-1.6032877
632.6,60,-38.406079,37.049188,-1.3568906,-38.390073,37.299991999999996,-1.0900813
656.375,61,-38.771626,37.774217,-0.9974091,-38.758449,37.996433,-0.76201663
680.15,62,-39.108509999999995,38.359563,-0.74894717,-39.097704,38.532854,-0.5648508
703.925,63,-39.418578000000004,38.838473,-0.58010526,-39.409692,38.960974,-0.4487184
727.7,64,-39.704522999999995,39.238433,-0.46609054,-39.697241,39.319253,-0.37798782
751.475,65,-39.968983,39.580749,-0.38823475,-39.963116,39.631988,-0.33112788
775.25,66,-40.213505,39.880819,-0.33268568,-40.208991999999995,39.912929999999996,-0.29606161
799.025,67,-40.436803000000005,40.148651,-0.28815252,-40.433640999999994,40.169028000000004,-0.26461265
822.8,68,-40.631378999999995,40.388525,-0.24285443,-40.629785999999996,40.402006,-0.22777955
846.575,69,-40.779274,40.59686,-0.18241395,-40.779325,40.606271,-0.17305419
870.35,70,-40.855117,40.758054,-0.09706239900000001,-40.856601,40.764787,-0.091813696
894.125,71,-40.845172,40.847335,0.0021623946,-40.847575,40.851833,0.0042588509000000005
917.9,72,-40.763692,40.849451,0.085758961,-40.766418,40.851812,0.085393596
941.675,73,-40.64074,40.776986,0.13624588,-40.64326,40.777415999999995,0.13415584
965.45,74,-40.500706,40.65927,0.15856342,-40.502564,40.658196000000004,0.15563203
989.225,75,-40.358048,40.520919,0.1628703,-40.358821999999996,40.518883,0.1600608
1013.0,76,-40.261468,40.375401000000004,0.11393331,-40.26147,40.372776,0.11130597
