,,CRD,CRD,CRD,CLIRAD,CLIRAD,CLIRAD
,,flug,fldg,fnetg,flug,fldg,fnetg
pressure,level,,,,,,
0.0,1,-4.7059752,0.0,-4.7059752,,,
1e-08,1,,,,-4.5925578,2.1835821e-06,-4.5925557
0.0006244,2,-4.705979699999999,1.4493207999999999e-05,-4.7059652000000005,-4.5925650000000005,2.9064193e-05,-4.592536
0.0008759,3,-4.7059818,1.6898643999999998e-05,-4.705964900000001,-4.5925683,3.4827711e-05,-4.5925335
0.0012286,4,-4.7059845000000005,2.0000511e-05,-4.705964499999999,-4.5925725,4.0949222e-05,-4.5925316
0.0017234,5,-4.705988099999999,2.3826698999999997e-05,-4.7059643,-4.5925781,4.7012690000000004e-05,-4.5925310999999995
0.0024174,6,-4.7059929,2.8525704999999997e-05,-4.7059644,-4.5925855,5.2849437e-05,-4.592532599999999
0.0033909,7,-4.705999299999999,3.431522e-05,-4.705965,-4.5925953,5.8767438e-05,-4.5925365
0.0047565,8,-4.706008,4.1462383e-05,-4.7059665,-4.5926085,6.548096599999999e-05,-4.592543
0.006672,9,-4.7060197,5.0269896e-05,-4.7059695,-4.5926264,7.3947873e-05,-4.5925525
0.0093589,10,-4.706035900000001,6.1055756e-05,-4.7059749,-4.592651,8.509509099999999e-05,-4.5925659
0.0131278,11,-4.7060584,7.4133125e-05,-4.7059843,-4.5926851,0.00010020886,-4.5925848
0.0184145,12,-4.7060902,8.9805772e-05,-4.7060004,-4.592733,0.00012088075,-4.5926121
0.0258302,13,-4.7061361,0.00010840158000000001,-4.7060277,-4.592801799999999,0.00014917568,-4.5926526
0.0362323,14,-4.7062049,0.00013036966999999998,-4.706074500000001,-4.5929033,0.00018770604,-4.5927155
0.0508234,15,-4.7063193,0.00015759896999999998,-4.7061617,-4.5930651,0.00024067361,-4.5928244000000005
0.0712906,16,-4.706514,0.00020961822,-4.7063044000000005,-4.593323799999999,0.00033280532,-4.5929910000000005
0.1,17,-4.7068251,0.00032937160000000006,-4.7064957000000005,-4.593712200000001,0.0005211733900000001,-4.593191
0.140271,18,-4.7073014,0.00056938374,-4.7067321,-4.5942741,0.0008875090300000001,-4.5933866
0.19676,19,-4.708017099999999,0.0010133664,-4.7070037000000005,-4.595076799999999,0.0015472191,-4.593529599999999
0.275997,20,-4.7090594,0.0018262832,-4.7072332,-4.596201799999999,0.0026549874,-4.5935468
0.3871,21,-4.7104846,0.0033131398,-4.707171400000001,-4.5977148,0.0043979141,-4.5933169000000005
0.5431,22,-4.712030599999999,0.0060310338,-4.7059996,-4.599400599999999,0.007069764599999999,-4.5923309
0.7617,23,-4.7119693,0.01066222,-4.701307099999999,-4.5993885,0.01100343,-4.588385099999999
1.0685,24,-4.7094033,0.015793433,-4.6936099,-4.5968691,0.014882161999999999,-4.581987000000001
1.4988,25,-4.7055045,0.019569849,-4.6859345999999995,-4.593102099999999,0.018178411000000002,-4.5749237
2.1024,26,-4.700696,0.022220082000000002,-4.678476,-4.5884387,0.021955366,-4.5664834
2.949,27,-4.695833400000001,0.023555866,-4.6722776,-4.5835769,0.025765745,-4.5578110999999994
4.1366,28,-4.6911843,0.02407044,-4.6671139,-4.5786694,0.028901132000000003,-4.549768299999999
5.8025,29,-4.686774099999999,0.02399938,-4.6627747,-4.573763400000001,0.029766799,-4.543996599999999
8.1392,30,-4.6826565,0.023313371,-4.6593431,-4.5688809,0.027534822999999996,-4.541346
11.417,31,-4.6789133000000005,0.021941956000000002,-4.656971400000001,-4.564186299999999,0.024243606,-4.5399427
16.0147,32,-4.6756504,0.019875808000000002,-4.6557746,-4.559907,0.022511572999999997,-4.5373954
22.464,33,-4.672990400000001,0.017265711,-4.6557247,-4.55624,0.021571387999999997,-4.5346687
31.5105,34,-4.6710218,0.014473469,-4.6565483,-4.5531915000000005,0.019546822,-4.5336447
44.2001,35,-4.669550800000001,0.011839946,-4.6577109000000005,-4.5503972,0.015640732,-4.5347565
62.0,36,-4.669584700000001,0.0089455232,-4.6606392,-4.5491363,0.010506505,-4.5386298
85.775,37,-4.6724874000000005,0.0063137367,-4.6661736,-4.5516649000000005,0.0065956025,-4.5450693
109.55,38,-4.6777003,0.0050920758,-4.6726082,-4.5575510999999995,0.0052329618,-4.5523181
133.325,39,-4.6852954,0.0055856551,-4.6797097,-4.5666015,0.0063692093,-4.5602323
157.1,40,-4.6947996,0.0080655528,-4.6867339999999995,-4.5778101,0.0098214111,-4.5679887
180.875,41,-4.7063234000000005,0.012077335,-4.6942461,-4.5912154,0.014603868,-4.576611499999999
204.65,42,-4.720046900000001,0.017827508,-4.702219400000001,-4.6069543,0.02093118,-4.5860232000000005
228.425,43,-4.7364239,0.025800302999999997,-4.7106235,-4.625489099999999,0.029259151,-4.596229900000001
252.2,44,-4.7558638,0.036547177,-4.7193166,-4.6471369000000005,0.04008879,-4.6070481
275.975,45,-4.7788822,0.050736983,-4.7281452,-4.6724053,0.05389587,-4.618509400000001
299.75,46,-4.8060893,0.069159713,-4.7369296,-4.7018708,0.071632736,-4.6302381
323.525,47,-4.83818,0.092732605,-4.7454474,-4.736106200000001,0.094640523,-4.6414657
347.3,48,-4.875931,0.12248768,-4.7534433,-4.7759626,0.12408933,-4.6518733
371.075,49,-4.9200278,0.1593618,-4.7606660000000005,-4.822129,0.16038683,-4.6617422
394.85,50,-4.970166000000001,0.20340274,-4.766763200000001,-4.8742895,0.20275679,-4.6715327
418.625,51,-5.0267513,0.25562811,-4.771123200000001,-4.9328817,0.25201479,-4.6808669
442.4,52,-5.0901532,0.31700371,-4.773149500000001,-4.9983621,0.30977464,-4.6885875
466.175,53,-5.1606909000000005,0.38847439,-4.7722165,-5.0710272000000005,0.37797279,-4.6930544
489.95,54,-5.238639900000001,0.47096318,-4.7676767,-5.1512459999999995,0.45846011,-4.6927859000000005
513.725,55,-5.324148,0.56527684,-4.7588712,-5.2389322,0.5528057,-4.6861265
537.5,56,-5.4173407,0.67224859,-4.7450922,-5.334557599999999,0.66204302,-4.6725145999999995
561.275,57,-5.5181853,0.79253969,-4.7256456,-5.4379650999999996,0.78651452,-4.6514505999999995
585.05,58,-5.6264962999999995,0.92673652,-4.6997597,-5.5489199000000005,0.92558846,-4.6233315
608.825,59,-5.7418528,1.075364,-4.6664888,-5.6669931,1.0781723,-4.5888208
632.6,60,-5.8633129,1.2386739,-4.6246391,-5.7912045,1.2429086999999999,-4.548295700000001
656.375,61,-5.9890665,1.4166463,-4.572420200000001,-5.9198785,1.4188399999999999,-4.5010384000000005
680.15,62,-6.1159091,1.608223,-4.5076861,-6.0499617,1.6046844,-4.4452773
703.925,63,-6.2399287,1.8103015,-4.4296272000000005,-6.177553400000001,1.7978439,-4.3797095
727.7,64,-6.3596474999999995,2.0181448,-4.3415027,-6.3013921999999996,1.9946235,-4.3067687
751.475,65,-6.482696400000001,2.2365890999999998,-4.2461072,-6.4292594,2.2007249,-4.2285346
775.25,66,-6.614584,2.4618493,-4.1527347,-6.566627900000001,2.4146035,-4.1520243
799.025,67,-6.759913799999999,2.6953859000000002,-4.0645279,-6.718235099999999,2.6411402,-4.0770949
822.8,68,-6.920302799999999,2.9406077,-3.9796951000000003,-6.8853605,2.886684,-3.9986764999999997
846.575,69,-7.089987599999999,3.1933307,-3.8966568999999995,-7.0618534,3.1466021,-3.9152513
870.35,70,-7.2647129,3.4541556000000004,-3.8105572999999997,-7.2437416,3.4192942000000004,-3.8244474999999998
894.125,71,-7.441706900000001,3.7235637,-3.7181432,-7.427386500000001,3.7039498,-3.7234366999999997
917.9,72,-7.618698700000001,4.0014301,-3.6172686,-7.6099404999999996,3.998616,-3.6113245000000003
941.675,73,-7.793033199999999,4.2875931,-3.5054401,-7.7889228,4.301914900000001,-3.4870078999999996
965.45,74,-7.9606337,4.5819323,-3.3787013999999997,-7.958903100000001,4.6138535,-3.3450496
989.225,75,-8.1129579,4.884296599999999,-3.2286612999999997,-8.1122868,4.9329293,-3.1793575
1013.0,76,-8.1851397,5.1948492,-2.9902905,-8.185139999999999,5.258788099999999,-2.9263519000000002
