,,CRD,CRD,CRD,CLIRAD,CLIRAD,CLIRAD
,,flug,fldg,fnetg,flug,fldg,fnetg
pressure,level,,,,,,
0.0,1,-13.104923,0.0,-13.104923,,,
1e-08,1,,,,-13.07735,9.047324500000001e-08,-13.07735
0.0006244,2,-13.104936,3.7388192000000003e-06,-13.104932000000002,-13.077356,2.4660519e-06,-13.077354
0.0008759,3,-13.104941,5.263017200000001e-06,-13.104936,-13.077359,3.4354739e-06,-13.077356
0.0012286,4,-13.104948,7.4532462e-06,-13.104941,-13.077363,4.8296057e-06,-13.077358
0.0017234,5,-13.104958,1.0602244e-05,-13.104947,-13.077368,6.8333931e-06,-13.077361
0.0024174,6,-13.104972,1.512738e-05,-13.104957,-13.077375,9.7131352e-06,-13.077366
0.0033909,7,-13.104991,2.1626298e-05,-13.104969,-13.077385000000001,1.3852136000000001e-05,-13.077371000000001
0.0047565,8,-13.105017,3.0947992e-05,-13.104986,-13.077399,1.9799930999999998e-05,-13.07738
0.006672,9,-13.105053999999999,4.4307987e-05,-13.10501,-13.077419,2.8347624999999998e-05,-13.07739
0.0093589,10,-13.105106,6.3434044e-05,-13.105042999999998,-13.077446,4.0627428e-05,-13.077405
0.0131278,11,-13.105178,9.077766799999999e-05,-13.105087,-13.077483,5.8268298999999996e-05,-13.077425
0.0184145,12,-13.105279,0.00012979828000000003,-13.105149,-13.077535000000001,8.3603181e-05,-13.077452000000001
0.0258302,13,-13.105419,0.00018535828000000002,-13.105234,-13.077608,0.00011997261,-13.077488
0.0362323,14,-13.105617,0.00026426153,-13.105352,-13.077708,0.00017217377,-13.077536
0.0508234,15,-13.105894000000001,0.00037668605,-13.105516999999999,-13.077847,0.00024754567000000004,-13.077599000000001
0.0712906,16,-13.106271000000001,0.00054956408,-13.105721,-13.078031,0.00036494175,-13.077666
0.1,17,-13.106753999999999,0.0008441219599999999,-13.10591,-13.078253,0.00056714285,-13.077686
0.140271,18,-13.107337,0.0013586841,-13.105979,-13.078493,0.0009251988699999999,-13.077568
0.19676,19,-13.107991,0.0022469614,-13.105744,-13.078704,0.0015549725,-13.077149
0.275997,20,-13.108620000000002,0.0037606913,-13.104859,-13.078781,0.0026536917,-13.076127
0.3871,21,-13.108997,0.0063045627,-13.102692999999999,-13.078511,0.0045532511,-13.073957
0.5431,22,-13.108621,0.010523992,-13.098097000000001,-13.077475,0.0078108184999999995,-13.069664999999999
0.7617,23,-13.106588,0.017243144,-13.089345,-13.075,0.01321512,-13.061784
1.0685,24,-13.102652,0.026273937,-13.076378,-13.070867999999999,0.021017254,-13.04985
1.4988,25,-13.097397,0.036327634,-13.061069,-13.06545,0.030734202999999998,-13.034716
2.1024,26,-13.0911,0.046366038,-13.044734,-13.058945,0.041858021,-13.017087
2.949,27,-13.084363,0.055171447,-13.029191,-13.051813000000001,0.053358525,-12.998453999999999
4.1366,28,-13.077452000000001,0.062335267,-13.015117,-13.044296000000001,0.064212116,-12.980084
5.8025,29,-13.070456,0.068101345,-13.002355,-13.036539,0.073423378,-12.963115
8.1392,30,-13.063503,0.07308177,-12.990421000000001,-13.028761,0.080265154,-12.948496
11.417,31,-13.056825,0.07811091,-12.978714,-13.021353,0.084767155,-12.936586
16.0147,32,-13.050892,0.08403162800000001,-12.96686,-13.015072,0.08815917300000001,-12.926913
22.464,33,-13.046622,0.09150767,-12.955114,-13.011374,0.092560589,-12.918814
31.5105,34,-13.045684,0.10090248,-12.944780999999999,-13.013059,0.10015817,-12.9129
44.2001,35,-13.050899000000001,0.1119816,-12.938917,-13.025403,0.11187239,-12.913530999999999
62.0,36,-13.07305,0.12075347,-12.952296,-13.063169,0.12414446,-12.939025
85.775,37,-13.132994,0.12379907,-13.009195,-13.150717000000002,0.13227681,-13.01844
109.55,38,-13.22535,0.1270527,-13.098298,-13.273809,0.13895286,-13.134856
133.325,39,-13.342357000000002,0.14363115,-13.198726,-13.420875,0.15596175,-13.264914000000001
157.1,40,-13.473504,0.18010812,-13.293396,-13.581023000000002,0.19050771,-13.390516
180.875,41,-13.616734,0.23308729,-13.383647,-13.751575,0.24129338,-13.510282
204.65,42,-13.771013,0.30300613,-13.468005999999999,-13.931056,0.30904603,-13.622010000000001
228.425,43,-13.937949,0.39467332,-13.543276,-14.120768,0.39843925,-13.722329
252.2,44,-14.118565,0.51332169,-13.605243,-14.321376999999998,0.51365982,-13.807717000000002
275.975,45,-14.314535000000001,0.66495958,-13.649576000000001,-14.534339000000001,0.65935214,-13.874986999999999
299.75,46,-14.527968,0.85601476,-13.671954000000001,-14.761489000000001,0.84400089,-13.917488
323.525,47,-14.761247000000001,1.0930197,-13.668226999999998,-15.004979,1.0734918,-13.931486999999999
347.3,48,-15.017010999999998,1.382133,-13.634878,-15.267831,1.3496011,-13.91823
371.075,49,-15.297106,1.7267072,-13.570398999999998,-15.552045000000001,1.6762801999999999,-13.875765
394.85,50,-15.597148,2.119689,-13.477459,-15.853423999999999,2.0515748,-13.801848999999999
418.625,51,-15.917402,2.5649804,-13.352422,-16.172387,2.4789232000000005,-13.693464
442.4,52,-16.257929,3.0649514,-13.192978,-16.509324,2.9573426,-13.551982
466.175,53,-16.618559,3.6207937000000006,-12.997765,-16.864236,3.4867548999999998,-13.377481
489.95,54,-16.998959,4.2326293,-12.76633,-17.237141,4.0705553,-13.166585000000001
513.725,55,-17.398238,4.8988543,-12.499384,-17.627001,4.7127429,-12.914258
537.5,56,-17.815544,5.6175315,-12.198012,-18.033759,5.4147681,-12.618991000000001
561.275,57,-18.249417,6.385076799999999,-11.864339999999999,-18.455910999999997,6.1719152,-12.283996
585.05,58,-18.697882999999997,7.1972914,-11.500592,-18.891553,6.975769500000001,-11.915784
608.825,59,-19.158203,8.0497309,-11.108472,-19.338094,7.8181438,-11.51995
632.6,60,-19.625823,8.936827800000001,-10.688996000000001,-19.791192000000002,8.692774400000001,-11.098417
656.375,61,-20.093525,9.852623699999999,-10.240901,-20.244332999999997,9.596995199999999,-10.647338000000001
680.15,62,-20.550148999999998,10.787858,-9.762290400000001,-20.687521,10.526931,-10.16059
703.925,63,-20.98349,11.726757000000001,-9.2567328,-21.109776999999998,11.471767,-9.638010000000001
727.7,64,-21.390191,12.649379,-8.740812199999999,-21.50865,12.414235000000001,-9.0944144
751.475,65,-21.797716,13.575517999999999,-8.2221978,-21.911378,13.377032,-8.5343464
775.25,66,-22.224917,14.482713,-7.7422049,-22.335232,14.3318,-8.0034317
799.025,67,-22.686839000000003,15.374209,-7.3126295,-22.79412,15.273257999999998,-7.520862400000001
822.8,68,-23.188582,16.263569,-6.925013000000001,-23.291807000000002,16.208862,-7.082944900000001
846.575,69,-23.71209,17.140043,-6.5720467000000005,-23.809185999999997,17.123352,-6.6858342
870.35,70,-24.243937,18.010447,-6.2334895999999995,-24.333612,18.026436999999998,-6.307174400000001
894.125,71,-24.775904,18.878703,-5.897200700000001,-24.856138,18.927957,-5.9281818
917.9,72,-25.302012,19.745222000000002,-5.556789599999999,-25.370522,19.831310000000002,-5.539212200000001
941.675,73,-25.815744,20.609779999999997,-5.2059644,-25.870813000000002,20.737467000000002,-5.133345200000001
965.45,74,-26.306948,21.472138,-4.834810500000001,-26.344419,21.647288,-4.697130400000001
989.225,75,-26.752334,22.331954,-4.4203795,-26.765912,22.558229,-4.207683599999999
1013.0,76,-26.962746000000003,23.18964,-3.7731062000000004,-26.96275,23.468692,-3.4940578
