,,CRD,CRD,CRD,CLIRAD,CLIRAD,CLIRAD
,,flug,fldg,fnetg,flug,fldg,fnetg
pressure,level,,,,,,
0.0,1,-17.738220000000002,0.0,-17.738220000000002,,,
1e-08,1,,,,-17.435557,0.00018174962,-17.435375
0.0006244,2,-17.738561999999998,0.006015972099999999,-17.732546,-17.435921,0.0034241145,-17.432497
0.0008759,3,-17.738717,0.007392234100000001,-17.731325,-17.43607,0.0045828047,-17.431487
0.0012286,4,-17.738915,0.0089700324,-17.729945,-17.436264,0.0061012747,-17.430163
0.0017234,5,-17.739163,0.010752467,-17.72841,-17.436517000000002,0.0080338815,-17.428483
0.0024174,6,-17.739476,0.012747526,-17.726729000000002,-17.436848,0.0103964,-17.426451
0.0033909,7,-17.739876000000002,0.01497887,-17.724897,-17.437279999999998,0.013144236,-17.424135999999997
0.0047565,8,-17.740389,0.017490619,-17.722898,-17.437849,0.016167268999999998,-17.421682
0.006672,9,-17.741055,0.020351553,-17.720704,-17.438603,0.019337542,-17.419265
0.0093589,10,-17.741933,0.023658699,-17.718275,-17.439608,0.022627125,-17.416981
0.0131278,11,-17.743108,0.027539012999999998,-17.715569,-17.440967,0.026232132999999998,-17.414735
0.0184145,12,-17.744713,0.032150433,-17.712563,-17.44284,0.030582842000000002,-17.412257
0.0258302,13,-17.746962,0.037679264,-17.709283,-17.445470999999998,0.036174618,-17.409297
0.0362323,14,-17.750245,0.044340197000000005,-17.705904,-17.449279,0.043427504000000006,-17.405851000000002
0.0508234,15,-17.755665,0.052414259000000005,-17.703251,-17.455368,0.052666257,-17.402701999999998
0.0712906,16,-17.764995000000003,0.06325196799999999,-17.701743,-17.465431,0.06501051299999999,-17.400420999999998
0.1,17,-17.778772,0.080462981,-17.698309,-17.479945999999998,0.083505538,-17.39644
0.140271,18,-17.796685,0.10781713,-17.688868,-17.498614,0.1112273,-17.387387
0.19676,19,-17.819499,0.14852611,-17.670972,-17.522119,0.15039766,-17.371722000000002
0.275997,20,-17.84789,0.20840021,-17.63949,-17.550971,0.20601229,-17.344959
0.3871,21,-17.88157,0.29654535,-17.585025,-17.584547,0.28872369,-17.295823000000002
0.5431,22,-17.91716,0.4270239,-17.490136,-17.618913,0.41698747,-17.201925
0.7617,23,-17.937519,0.62026412,-17.317255,-17.63673,0.61521947,-17.021511
1.0685,24,-17.900548,0.88937954,-17.011167999999998,-17.599147,0.89278493,-16.706362
1.4988,25,-17.793142,1.1959581,-16.597184,-17.495019,1.1941572,-16.300862
2.1024,26,-17.646393,1.5000508,-16.146342,-17.352110999999997,1.4703758,-15.881735
2.949,27,-17.470616,1.8176961999999999,-15.652920000000002,-17.179674,1.771883,-15.407791
4.1366,28,-17.267239,2.1683326000000003,-15.098906,-16.977586,2.1610913,-14.816495000000002
5.8025,29,-17.038372,2.5718628,-14.466509,-16.748169,2.6183565,-14.129813
8.1392,30,-16.780484,3.0531631,-13.727321,-16.483860999999997,3.0987656,-13.385095000000002
11.417,31,-16.484835999999998,3.6293093,-12.855526,-16.174357,3.6427675,-12.531589
16.0147,32,-16.157769000000002,4.2954412,-11.862327,-15.825794,4.4024245,-11.423369000000001
22.464,33,-15.841878,5.0382907,-10.803587,-15.486239000000001,5.3684346,-10.117804
31.5105,34,-15.559863,5.8829566,-9.676905999999999,-15.175999,6.3573239,-8.818675500000001
44.2001,35,-15.278108,6.840081,-8.4380273,-14.856593,7.268728200000001,-7.5878645
62.0,36,-15.025457000000001,7.8028076,-7.2226492,-14.558209,8.277888,-6.280321099999999
85.775,37,-14.952916,8.6267117,-6.3262044,-14.445288,9.3750451,-5.0702434
109.55,38,-15.053451999999998,9.226652,-5.8268005,-14.510187,10.128945,-4.381241999999999
133.325,39,-15.216914000000001,9.7623707,-5.454543,-14.633157999999998,10.636903,-3.9962553999999995
157.1,40,-15.556524,10.195144,-5.3613800000000005,-14.945139999999999,10.936568,-4.008572200000001
180.875,41,-16.302836,10.660318,-5.642518099999999,-15.708628,11.254366000000001,-4.4542623
204.65,42,-17.388686,11.478110000000001,-5.9105762,-16.845845,11.983827999999999,-4.8620166
228.425,43,-18.534089,12.693867,-5.840221700000001,-18.0445,13.177551000000001,-4.8669487
252.2,44,-19.666977,14.046066,-5.6209106,-19.223467000000003,14.521409,-4.7020575
275.975,45,-20.782041,15.428339999999999,-5.3537004999999995,-20.3793,15.888682000000001,-4.4906182
299.75,46,-21.878752,16.8116,-5.0671527,-21.512860999999997,17.254983,-4.2578781999999995
323.525,47,-22.955992000000002,18.180351,-4.7756417,-22.621796,18.609791,-4.0120054
347.3,48,-24.012674,19.526206,-4.4864678,-23.707322,19.951132,-3.7561897000000006
371.075,49,-25.047566,20.844175,-4.2033915,-24.768883,21.273679,-3.4952044
394.85,50,-26.058518,22.13038,-3.9281379000000003,-25.803825,22.571153,-3.232672
418.625,51,-27.042292,23.380742,-3.6615495000000005,-26.80932,23.83676,-2.9725595
442.4,52,-27.996331,24.590899,-3.405432,-27.783051,25.063473000000002,-2.719578
466.175,53,-28.920091999999997,25.756648000000002,-3.1634439,-28.724844,26.242805999999998,-2.4820379
489.95,54,-29.816009,26.876687,-2.9393221,-29.636718,27.371684000000002,-2.2650342999999995
513.725,55,-30.688078000000004,27.953351,-2.7347267000000004,-30.523072999999997,28.450756,-2.0723168000000003
537.5,56,-31.539873999999998,28.991121000000003,-2.5487534,-31.388299,29.48534,-1.9029595000000001
561.275,57,-32.373796,29.994619,-2.3791777,-32.23473,30.479457,-1.7552724999999998
585.05,58,-33.191255,30.967554999999997,-2.2236999,-33.063941,31.436889,-1.6270518999999999
608.825,59,-33.993944,31.913984000000003,-2.0799598,-33.877565000000004,32.362001,-1.5155635
632.6,60,-34.782695000000004,32.835636,-1.9470598999999997,-34.676639,33.257715000000005,-1.4189233
656.375,61,-35.558087,33.733739,-1.8243482,-35.461617,34.127241999999995,-1.334375
680.15,62,-36.320477000000004,34.609454,-1.7110226999999998,-36.232963,34.972801000000004,-1.2601613999999999
703.925,63,-37.069871,35.463817,-1.606054,-36.99087,35.796295,-1.1945753000000001
727.7,64,-37.805662,36.297669,-1.5079924999999998,-37.73516,36.599538,-1.1356217
751.475,65,-38.525960999999995,37.111334,-1.4146273999999999,-38.463221999999995,37.38394,-1.0792823999999999
775.25,66,-39.226293,37.903988,-1.3223045,-39.171416,38.148371999999995,-1.0230433
799.025,67,-39.897308,38.672359,-1.2249487,-39.849441,38.890619,-0.95882162
822.8,68,-40.524802,39.408082,-1.1167203,-40.483979,39.601639,-0.88233965
846.575,69,-41.096862,40.096971999999994,-0.99988972,-41.062138,40.268054,-0.79408392
870.35,70,-41.613944000000004,40.725792999999996,-0.88815135,-41.584487,40.875762,-0.70872531
894.125,71,-42.088984,41.29323,-0.79575426,-42.064338,41.423727,-0.64061168
917.9,72,-42.536669,41.811556,-0.72511333,-42.516715000000005,41.924562,-0.59215284
941.675,73,-42.966077,42.29651,-0.66956691,-42.950856,42.394090000000006,-0.55676611
965.45,74,-43.380165999999996,42.759442,-0.62072381,-43.369758000000004,42.843583,-0.52617562
989.225,75,-43.773856,43.206888,-0.56696856,-43.769782,43.279437,-0.49034499
1013.0,76,-43.964837,43.642378,-0.32245941,-43.96484,43.705009999999994,-0.25982985
