,,CRD,CRD,CRD,CLIRAD,CLIRAD,CLIRAD
,,flug,fldg,fnetg,flug,fldg,fnetg
pressure,level,,,,,,
0.0,1,-16.337494,0.0,-16.337494,,,
1e-08,1,,,,-16.241721,1.2831124e-06,-16.24172
0.0006244,2,-16.337526,3.5692694e-05,-16.33749,-16.241749,2.6496669999999998e-05,-16.241723
0.0008759,3,-16.337538000000002,5.0684925e-05,-16.337488,-16.241761,3.7204185000000004e-05,-16.241723
0.0012286,4,-16.337556,7.3994533e-05,-16.337482,-16.241776,5.3936598e-05,-16.241722
0.0017234,5,-16.337579,0.0001101481,-16.337469,-16.241798,8.0047441e-05,-16.241718
0.0024174,6,-16.337612,0.00016589311,-16.337446,-16.241827,0.00012065038999999999,-16.241706
0.0033909,7,-16.337654,0.00025130788,-16.337403,-16.241866,0.00018356941000000003,-16.241682
0.0047565,8,-16.337711,0.00038111004,-16.337329999999998,-16.241918,0.00028121967,-16.241637
0.006672,9,-16.337785,0.0005763483599999999,-16.337209,-16.241985999999997,0.00043243685,-16.241554
0.0093589,10,-16.337879,0.0008664517300000001,-16.337013,-16.242075,0.00066496727,-16.241410000000002
0.0131278,11,-16.337998000000002,0.0012911091,-16.336706,-16.242186,0.0010193257,-16.241167
0.0184145,12,-16.338141,0.0019015429,-16.336239000000003,-16.242321,0.0015532109,-16.240768
0.0258302,13,-16.338307999999998,0.0027602878999999996,-16.335547000000002,-16.242479,0.002345626,-16.240133
0.0362323,14,-16.338486,0.0039379703,-16.334548,-16.24265,0.0034972938,-16.239152
0.0508234,15,-16.338665,0.0054860005,-16.333179,-16.242822,0.0051039899,-16.237718
0.0712906,16,-16.338842,0.0074115604,-16.331431,-16.242994,0.0072125856999999995,-16.235781
0.1,17,-16.339015,0.0097198139,-16.329295000000002,-16.243159,0.0098149603,-16.233344
0.140271,18,-16.339153,0.012442286,-16.326711,-16.243287,0.012836463999999999,-16.230451000000002
0.19676,19,-16.339198,0.015632081000000003,-16.323566,-16.243322,0.016133658999999998,-16.227188
0.275997,20,-16.339032999999997,0.019389794,-16.319643,-16.243153,0.019607178,-16.223546
0.3871,21,-16.338389000000003,0.023906844,-16.314482,-16.242515,0.02340711,-16.219108
0.5431,22,-16.336412,0.029480672000000003,-16.306932,-16.240526000000003,0.02804626,-16.21248
0.7617,23,-16.332806,0.035338563999999996,-16.297467,-16.236804,0.033137035,-16.203667000000003
1.0685,24,-16.328615,0.040497259,-16.288117,-16.23239,0.0379929,-16.194397
1.4988,25,-16.32433,0.045640520999999996,-16.27869,-16.227798,0.043268914000000006,-16.184529
2.1024,26,-16.319972,0.051536255999999996,-16.268435999999998,-16.223041000000002,0.049421139,-16.173619
2.949,27,-16.315642999999998,0.058468545,-16.257175,-16.218226,0.05652099,-16.161704999999998
4.1366,28,-16.311799,0.066575652,-16.245223,-16.21376,0.06495155400000001,-16.148809
5.8025,29,-16.308809,0.076630959,-16.232178,-16.209947,0.075903253,-16.134044
8.1392,30,-16.306398,0.090150652,-16.216248,-16.20644,0.091447229,-16.114993
11.417,31,-16.304562,0.10808063,-16.196482,-16.203227,0.11234876,-16.090879
16.0147,32,-16.304237,0.1309254,-16.173310999999998,-16.201370999999998,0.13786698,-16.063504000000002
22.464,33,-16.307938,0.15986844,-16.14807,-16.203729,0.16694718,-16.036781
31.5105,34,-16.317472,0.20004815,-16.117424,-16.212293,0.20273426,-16.009558
44.2001,35,-16.332376999999997,0.25934755,-16.07303,-16.226055,0.25175183,-15.974302999999999
62.0,36,-16.353986,0.34345734,-16.010528,-16.246441,0.32413309,-15.922308
85.775,37,-16.383177,0.45533915,-15.927838000000001,-16.274728,0.43299348,-15.841735
109.55,38,-16.412615,0.56640296,-15.846212,-16.304041,0.55052126,-15.753520000000002
133.325,39,-16.444309,0.67295043,-15.771359,-16.336367000000003,0.66713471,-15.669232000000001
157.1,40,-16.480793,0.77459741,-15.706195000000001,-16.374098999999998,0.77867191,-15.595426999999999
180.875,41,-16.522585,0.87326874,-15.649317000000002,-16.417798,0.88542755,-15.532371
204.65,42,-16.5703,0.96945809,-15.600842000000002,-16.46828,0.98753154,-15.480749
228.425,43,-16.624804,1.0633523,-15.561451000000002,-16.527133,1.0858396000000001,-15.441294000000001
252.2,44,-16.687507,1.1550744,-15.532433,-16.596104999999998,1.1805927999999999,-15.415512
275.975,45,-16.761430999999998,1.2447903,-15.516641,-16.678317,1.2720721000000001,-15.406245000000002
299.75,46,-16.853504,1.3344298,-15.519075,-16.780113,1.3623186,-15.417794
323.525,47,-16.964377,1.4366812,-15.527695999999999,-16.901010999999997,1.463809,-15.437202
347.3,48,-17.084967000000002,1.5654038000000001,-15.519563,-17.031086,1.5905854,-15.4405
371.075,49,-17.209305999999998,1.7201046000000002,-15.489201999999999,-17.164360000000002,1.7430697,-15.421289999999999
394.85,50,-17.336370000000002,1.8964291000000002,-15.439941000000001,-17.299875,1.9173529999999999,-15.382522
418.625,51,-17.46555,2.0930033,-15.372547,-17.4369,2.1115703999999997,-15.32533
442.4,52,-17.596107,2.3091644000000002,-15.286942000000002,-17.574459,2.3245478,-15.249910999999999
466.175,53,-17.727229,2.5445242,-15.182704999999999,-17.711857000000002,2.5559796,-15.155876999999998
489.95,54,-17.857993,2.7986819,-15.059311,-17.848208,2.8057945,-15.042413
513.725,55,-17.987363000000002,3.0710257999999997,-14.916338,-17.982553,3.0737919,-14.908760999999998
537.5,56,-18.114196,3.3605787000000005,-14.753617000000002,-18.113401,3.358712,-14.754689
561.275,57,-18.237282999999998,3.6658589,-14.571423999999999,-18.239642,3.6598808,-14.579760999999998
585.05,58,-18.355424,3.9848881,-14.370535999999998,-18.360157,3.9759955999999996,-14.384160999999999
608.825,59,-18.467509,4.3152038,-14.152304999999998,-18.473917,4.3050804000000005,-14.168835999999999
632.6,60,-18.57261,4.654003400000001,-13.918607000000002,-18.580135000000002,4.6446178,-13.935517
656.375,61,-18.670029,4.9983339,-13.671695000000001,-18.678054,4.9914193,-13.686634
680.15,62,-18.759265,5.3452817999999995,-13.413982999999998,-18.767255,5.342426000000001,-13.424829
703.925,63,-18.839967,5.692262599999999,-13.147704000000001,-18.847427,5.6952685999999995,-13.152157999999998
727.7,64,-18.911795,6.0370794000000005,-12.874716000000001,-18.918328,6.0477824,-12.870546000000001
751.475,65,-18.974241,6.3779862000000005,-12.596255000000001,-18.979526,6.3982123,-12.581314
775.25,66,-19.026441000000002,6.7136433,-12.312797,-19.030219,6.7451360000000005,-12.285083
799.025,67,-19.066958,7.042903,-12.024055,-19.069031,7.087253200000001,-11.981778
822.8,68,-19.093595999999998,7.364466999999999,-11.729128999999999,-19.09384,7.4228547,-11.670985
846.575,69,-19.103592000000003,7.676088,-11.427503,-19.102023000000003,7.7495199999999995,-11.352503
870.35,70,-19.095106,7.973199900000001,-11.121906,-19.092111,8.062574099999999,-11.029537
894.125,71,-19.069986,8.2486545,-10.821332,-19.066262,8.3548297,-10.711432
917.9,72,-19.034645,8.4950137,-10.539631,-19.030924,8.618666900000001,-10.412257
941.675,73,-18.996821,8.7092555,-10.287564999999999,-18.993662,8.850613599999999,-10.143048
965.45,74,-18.962353,8.8939163,-10.068436,-18.960162,9.0526555,-9.907507
989.225,75,-18.935361,9.0534267,-9.8819344,-18.934396,9.2288412,-9.7055545
1013.0,76,-18.921523,9.1919607,-9.729562,-18.92152,9.3830369,-9.538483099999999
