,,CRD,CRD,CRD,CLIRAD,CLIRAD,CLIRAD
,,flug,fldg,fnetg,flug,fldg,fnetg
pressure,level,,,,,,
0.0,1,-7.8412102,0.0,-7.8412102,,,
1e-08,1,,,,-7.8879768,9.4179907e-08,-7.8879767
0.0006244,2,-7.841212599999999,1.1017438e-06,-7.841211500000001,-7.8879773,7.2518692e-07,-7.8879765
0.0008759,3,-7.841213499999999,1.5704181e-06,-7.841212,-7.887977499999999,9.9872496e-07,-7.8879765
0.0012286,4,-7.8412148,2.3037229e-06,-7.8412125,-7.8879777,1.4300968000000001e-06,-7.887976200000001
0.0017234,5,-7.8412164,3.451819e-06,-7.841213000000001,-7.887977900000001,2.1006815e-06,-7.8879758
0.0024174,6,-7.8412186,5.2469742999999994e-06,-7.8412133,-7.887978200000001,3.1436306000000003e-06,-7.887975
0.0033909,7,-7.8412213,8.0508997e-06,-7.8412133,-7.887978299999999,4.7666438e-06,-7.887973599999999
0.0047565,8,-7.841224700000001,1.2420215000000001e-05,-7.8412123,-7.887978299999999,7.2931534e-06,-7.887971
0.006672,9,-7.841228900000001,1.9215077000000002e-05,-7.841209700000001,-7.887977900000001,1.1225173e-05,-7.8879667
0.0093589,10,-7.8412337,2.9765035e-05,-7.8412039,-7.8879768,1.7340287000000002e-05,-7.8879594
0.0131278,11,-7.841238900000001,4.6114309999999994e-05,-7.8411928,-7.887974300000001,2.6843555000000002e-05,-7.887947500000001
0.0184145,12,-7.8412440000000005,7.1396036e-05,-7.841172599999999,-7.8879694,4.1597397e-05,-7.887927799999999
0.0258302,13,-7.8412474,0.00011039888999999999,-7.841137,-7.887960400000001,6.447888700000001e-05,-7.8878960000000005
0.0362323,14,-7.8412467999999995,0.00017037965,-7.841076400000001,-7.8879446,9.9912992e-05,-7.8878447
0.0508234,15,-7.841238400000001,0.00026125515,-7.840977099999999,-7.887917900000001,0.00015409942,-7.887763799999999
0.0712906,16,-7.8412181,0.00039564113,-7.8408224,-7.8878754,0.00023526952,-7.8876401
0.1,17,-7.8411783999999995,0.00059164687,-7.8405868000000005,-7.8878091,0.00035567197,-7.8874534
0.140271,18,-7.8411061,0.00087592352,-7.8402302,-7.8877062,0.0005341103500000001,-7.8871720000000005
0.19676,19,-7.8409792000000005,0.0012855671,-7.8396936,-7.8875470000000005,0.0007982910799999999,-7.886748700000001
0.275997,20,-7.8407613,0.0018713259,-7.838889999999999,-7.887301400000001,0.0011888561,-7.8861125
0.3871,21,-7.840391,0.0027009039,-7.8376901,-7.8869234,0.0017648531,-7.8851586
0.5431,22,-7.839767500000001,0.0038569709000000002,-7.8359106,-7.8863458,0.0026089626,-7.8837368
0.7617,23,-7.8388932,0.0052727173,-7.8336205,-7.8855692,0.0037331314000000003,-7.881836
1.0685,24,-7.8379323,0.0066990054,-7.8312333,-7.8846962,0.0050447853,-7.879651400000001
1.4988,25,-7.8369796,0.0079779414,-7.829001600000001,-7.883792999999999,0.0064870269,-7.877306
2.1024,26,-7.8360689,0.0090457133,-7.8270232,-7.8828963000000005,0.0080311872,-7.8748651
2.949,27,-7.8352512999999995,0.009871892299999999,-7.825379400000001,-7.882064,0.009624107,-7.8724398
4.1366,28,-7.834618099999999,0.010482119,-7.824136,-7.881385099999999,0.011188706000000001,-7.870196400000001
5.8025,29,-7.8342287,0.011051801000000002,-7.8231769,-7.880926,0.012698791000000001,-7.8682273
8.1392,30,-7.8340648,0.011885443,-7.8221793,-7.8807193,0.014225286,-7.866494
11.417,31,-7.8341989000000005,0.013212939,-7.820986,-7.880903,0.015841875,-7.865061099999999
16.0147,32,-7.8349074000000005,0.0152046,-7.819702799999999,-7.881828200000001,0.017658088,-7.8641702
22.464,33,-7.8367421,0.018127314,-7.8186148,-7.8840859,0.019973754,-7.8641122
31.5105,34,-7.8402223,0.0227737,-7.817448599999999,-7.888322500000001,0.023659693,-7.8646628
44.2001,35,-7.8457217,0.0304582,-7.8152634999999995,-7.8952879000000005,0.03016009,-7.865127799999999
62.0,36,-7.8542027999999995,0.042493003,-7.8117098,-7.9065769,0.041058151,-7.865518700000001
85.775,37,-7.866708900000001,0.059804555999999995,-7.8069044000000005,-7.924061099999999,0.057463562,-7.866597500000001
109.55,38,-7.880566099999999,0.07786618599999999,-7.802699900000001,-7.944151700000001,0.07494846200000001,-7.8692033
133.325,39,-7.8963472999999995,0.095851799,-7.8004955,-7.967166099999999,0.09268237900000001,-7.8744837
157.1,40,-7.9149342,0.11414358,-7.8007906,-7.993635799999999,0.11101944,-7.882616400000001
180.875,41,-7.9366315,0.13287966,-7.8037518,-8.0235868,0.12988723,-7.8936996
204.65,42,-7.9618435,0.15214698,-7.809696499999999,-8.0571289,0.14926819,-7.9078607000000005
228.425,43,-7.990891400000001,0.17169564,-7.8191958,-8.094264599999999,0.16890821,-7.9253564
252.2,44,-8.0243405,0.19148419,-7.8328562999999995,-8.1351155,0.18879992,-7.9463156
275.975,45,-8.063106699999999,0.21159272,-7.851514,-8.180006500000001,0.20906511,-7.9709414
299.75,46,-8.1082815,0.23241062,-7.875870900000001,-8.2292834,0.23006148,-7.999221899999999
323.525,47,-8.1590845,0.25648288,-7.902601600000001,-8.281992,0.2537695,-8.0282225
347.3,48,-8.2128686,0.28751926,-7.925349300000001,-8.336043,0.28326155,-8.0527815
371.075,49,-8.267851,0.32714307,-7.9407079,-8.3900444,0.32015699,-8.0698874
394.85,50,-8.3264788,0.38008077,-7.946397999999999,-8.446440199999998,0.36912619,-8.077314
418.625,51,-8.3907096,0.45111159,-7.9395980999999995,-8.5071675,0.43493725,-8.0722303
442.4,52,-8.4610981,0.54255268,-7.9185454,-8.5728025,0.52017551,-8.052627000000001
466.175,53,-8.5379051,0.65609879,-7.881806299999999,-8.643727900000002,0.6260026,-8.0177253
489.95,54,-8.62098,0.79275492,-7.828225099999999,-8.7199226,0.75282416,-7.967098399999999
513.725,55,-8.709767900000001,0.9529166,-7.756851299999999,-8.8010199,0.90176313,-7.8992567
537.5,56,-8.803303199999998,1.1363028999999998,-7.6670003,-8.8862376,1.0740266,-7.8122110000000005
561.275,57,-8.900229800000002,1.3418185,-7.558411200000001,-8.9744016,1.2689271,-7.705474499999999
585.05,58,-8.9989382,1.5676557,-7.4312825,-9.0640593,1.4836328,-7.580426400000001
608.825,59,-9.097654400000001,1.8112049,-7.2864494,-9.153574,1.7144389,-7.4391351
632.6,60,-9.1946343,2.0692821,-7.1253522,-9.2413998,1.9580959,-7.283303900000001
656.375,61,-9.2882822,2.3383217999999997,-6.9499604999999995,-9.326008,2.2123182999999997,-7.1136898
680.15,62,-9.3772204,2.6146541,-6.7625663000000005,-9.4062421,2.4749943,-6.9312478
703.925,63,-9.460289300000001,2.8948079,-6.5654813999999995,-9.480859599999999,2.743968,-6.7368915
727.7,64,-9.536439900000001,3.1756724,-6.360767500000001,-9.548867199999998,3.0164157000000005,-6.5324515
751.475,65,-9.604562199999998,3.4546633,-6.1498989,-9.609207000000001,3.289394,-6.319813099999999
775.25,66,-9.6632757,3.7297599000000003,-5.9335157999999995,-9.660601699999999,3.5601265,-6.1004752
799.025,67,-9.710619099999999,3.9992273000000003,-5.7113917999999995,-9.7013237,3.826056,-5.8752676
822.8,68,-9.7437214,4.2612868,-5.4824345999999995,-9.7290335,4.0849157,-5.6441178
846.575,69,-9.758796499999999,4.513203,-5.2455935,-9.7404411,4.333916,-5.4065251
870.35,70,-9.752736500000001,4.7496402,-5.003096299999999,-9.733144699999999,4.5679026,-5.1652420999999995
894.125,71,-9.7267054,4.9627574999999995,-4.763947900000001,-9.708476,4.779863300000001,-4.9286128
917.9,72,-9.687848800000001,5.1445517,-4.5432971,-9.6729717,4.9625764000000006,-4.7103953
941.675,73,-9.645449800000002,5.2928499,-4.3525999,-9.634900300000002,5.113992700000001,-4.520907599999999
965.45,74,-9.606275199999999,5.412365900000001,-4.1939093000000005,-9.600191800000001,5.2383394999999995,-4.3618524
989.225,75,-9.5747995,5.5089809,-4.0658185,-9.5725346,5.3409904,-4.2315442
1013.0,76,-9.558030300000002,5.5875331,-3.9704972,-9.55803,5.426195099999999,-4.1318349
