,,CRD,CRD,CRD,CLIRAD,CLIRAD,CLIRAD
,,flug,fldg,fnetg,flug,fldg,fnetg
pressure,level,,,,,,
0.0,1,-10.944362,0.0,-10.944362,,,
1e-08,1,,,,-10.659582,1.9299526e-06,-10.65958
0.0006244,2,-10.944366,2.2679055e-06,-10.944364,-10.659585,3.5352839e-06,-10.659581
0.0008759,3,-10.944367999999999,3.3755694e-06,-10.944365,-10.659586000000001,4.3181621e-06,-10.659582
0.0012286,4,-10.944372,5.545779e-06,-10.944366,-10.659588000000001,5.8569346e-06,-10.659582
0.0017234,5,-10.944377000000001,9.610460500000001e-06,-10.944367999999999,-10.659592,8.752969000000001e-06,-10.659583
0.0024174,6,-10.944386,1.6981504e-05,-10.944369,-10.659597,1.4027072e-05,-10.659583
0.0033909,7,-10.944399,3.004346e-05,-10.944369,-10.659606,2.3410486e-05,-10.659582
0.0047565,8,-10.944417999999999,5.2775937000000005e-05,-10.944365,-10.659618,3.9795230000000004e-05,-10.659578
0.006672,9,-10.944445,9.176948e-05,-10.944353,-10.659634,6.798312e-05,-10.659566
0.0093589,10,-10.944481,0.00015786467,-10.944324,-10.659657000000001,0.00011590926000000001,-10.659541
0.0131278,11,-10.94453,0.00026863707,-10.944261000000001,-10.659685000000001,0.00019657057,-10.659489
0.0184145,12,-10.944591,0.00045272053,-10.944138,-10.659719,0.00033129059,-10.659388
0.0258302,13,-10.944661,0.0007558839200000001,-10.943905,-10.659755,0.00055449598,-10.6592
0.0362323,14,-10.944730999999999,0.0012507987,-10.943480000000001,-10.659781,0.0009215259800000002,-10.658859
0.0508234,15,-10.944789,0.0021130677,-10.942675999999999,-10.659782,0.0015668143,-10.658215
0.0712906,16,-10.944814,0.0036971468,-10.941117,-10.659723,0.0027672781,-10.656956
0.1,17,-10.944736,0.0065051386999999995,-10.938231,-10.659526,0.0049334379,-10.654592
0.140271,18,-10.944397,0.011252983999999999,-10.933144,-10.659025999999999,0.0086855943,-10.65034
0.19676,19,-10.943483,0.018969726,-10.924513000000001,-10.657914,0.014975452,-10.642938000000001
0.275997,20,-10.941392,0.031063774,-10.910328,-10.655610000000001,0.025207261,-10.630403
0.3871,21,-10.936946,0.0493507,-10.887595,-10.651029,0.041339432999999995,-10.609689999999999
0.5431,22,-10.927846,0.075915782,-10.85193,-10.642206,0.06582370900000001,-10.576383
0.7617,23,-10.912307,0.11155366,-10.800754,-10.627543,0.10049374,-10.52705
1.0685,24,-10.891922000000001,0.15167807,-10.740244,-10.608166,0.14203398,-10.466132
1.4988,25,-10.868108,0.19171936,-10.676388000000001,-10.585164,0.18449697,-10.400667
2.1024,26,-10.841072,0.23105663,-10.610016,-10.558621,0.22498415,-10.333637
2.949,27,-10.81374,0.26886791,-10.544872,-10.531479,0.26325265,-10.268226
4.1366,28,-10.791267,0.30637863,-10.484888,-10.508751,0.30195721,-10.206794
5.8025,29,-10.777289999999999,0.34864521,-10.428645,-10.494,0.34645927,-10.14754
8.1392,30,-10.771044999999999,0.40080149,-10.370244,-10.486564999999999,0.40324414,-10.083321
11.417,31,-10.773417,0.46456458,-10.308852,-10.48748,0.47368475,-10.013795
16.0147,32,-10.792003999999999,0.54435843,-10.247645,-10.50451,0.56101353,-9.943496699999999
22.464,33,-10.845464999999999,0.64787794,-10.197587,-10.556502,0.67153814,-9.8849635
31.5105,34,-10.952024,0.79346498,-10.158559,-10.662753,0.82319877,-9.839553800000001
44.2001,35,-11.118585000000001,0.9950427,-10.123543,-10.832049000000001,1.0296177,-9.802431599999998
62.0,36,-11.364229,1.2396768999999999,-10.124552,-11.088865,1.282148,-9.8067172
85.775,37,-11.70815,1.497008,-10.211142,-11.461988,1.5543735,-9.9076148
109.55,38,-12.05283,1.6825006,-10.370330000000001,-11.851335,1.7545313000000002,-10.096803999999999
133.325,39,-12.390404,1.8078130000000001,-10.582591,-12.245431,1.8926443,-10.352787
157.1,40,-12.732933000000001,1.8963368999999999,-10.836596,-12.650805,1.9922431,-10.658562
180.875,41,-13.090674,1.9646988,-11.125975,-13.07142,2.0701971,-11.001223
204.65,42,-13.430075,2.0150335,-11.415042,-13.460524,2.1282252999999995,-11.332299
228.425,43,-13.727719,2.0512591000000002,-11.67646,-13.789164000000001,2.1703767999999997,-11.618787
252.2,44,-13.987354999999999,2.0784540000000002,-11.908901,-14.063688,2.2022494999999997,-11.861439
275.975,45,-14.203745999999999,2.0987459,-12.105,-14.282479,2.2261417999999997,-12.056337
299.75,46,-14.377223,2.1144457,-12.262777,-14.45069,2.2444675,-12.206223
323.525,47,-14.508211,2.1294796000000003,-12.378731,-14.573602,2.2608497000000005,-12.312752
347.3,48,-14.605375,2.1466107999999995,-12.458765,-14.662798,2.2780637,-12.384735000000001
371.075,49,-14.683632999999999,2.1667711,-12.516862,-14.733545999999999,2.2974482999999997,-12.436097
394.85,50,-14.748459,2.1893084,-12.559151,-14.791436,2.3186772999999996,-12.472759
418.625,51,-14.801378,2.2130963,-12.588281,-14.838211,2.3408207,-12.49739
442.4,52,-14.843656,2.2371315,-12.606525,-14.875257999999999,2.3629984,-12.512260000000001
466.175,53,-14.878538,2.2618457000000003,-12.616692,-14.905632999999998,2.3856656000000003,-12.519967
489.95,54,-14.909286999999999,2.288653,-12.620633999999999,-14.932275,2.4101722999999997,-12.522103
513.725,55,-14.936588,2.3177413,-12.618846000000001,-14.955829000000001,2.4367308999999997,-12.519098
537.5,56,-14.960714999999999,2.3490729,-12.611642,-14.976510999999999,2.4652425,-12.511268
561.275,57,-14.981928,2.3826452999999996,-12.599283,-14.994585999999998,2.4957467,-12.49884
585.05,58,-15.000389000000002,2.4183362999999996,-12.582052000000001,-15.010229,2.5281801,-12.482049
608.825,59,-15.016288000000001,2.4560575,-12.56023,-15.023629000000001,2.5625147999999998,-12.461115
632.6,60,-15.029825,2.4957372,-12.534088,-15.03498,2.5987417,-12.436238000000001
656.375,61,-15.041159,2.5372026,-12.503957000000002,-15.044412,2.6366881,-12.407724
680.15,62,-15.050432999999998,2.5802127,-12.470221,-15.052055,2.6761254,-12.37593
703.925,63,-15.057804999999998,2.6246174,-12.433188000000001,-15.058056,2.7169653,-12.341091
727.7,64,-15.063412,2.6702742,-12.393138,-15.062544,2.7591169,-12.303427000000001
751.475,65,-15.067354000000002,2.7169456000000003,-12.350408,-15.065619,2.8023957000000004,-12.263223
775.25,66,-15.069721,2.7644089,-12.305311999999999,-15.067369,2.8466231,-12.220746
799.025,67,-15.0706,2.8126437,-12.257957000000001,-15.067879999999999,2.8918021,-12.176078
822.8,68,-15.070070000000001,2.861636,-12.208434,-15.067235,2.9378748,-12.12936
846.575,69,-15.068253,2.9111217000000003,-12.157131,-15.065551000000001,2.9845882,-12.080963
870.35,70,-15.065404999999998,2.9606246,-12.104781,-15.06306,3.0315237,-12.031536000000001
894.125,71,-15.061979999999998,3.0094773,-12.052503,-15.060143,3.0780961,-11.982046
917.9,72,-15.058551000000001,3.0568567000000004,-12.001694,-15.057267999999999,3.1235678,-11.933701
941.675,73,-15.055596,3.1021265,-11.953469,-15.054820999999999,3.1673423,-11.887478
965.45,74,-15.053372,3.1450687000000004,-11.908303,-15.052999,3.2091812,-11.843817999999999
989.225,75,-15.051972,3.1856897999999996,-11.866282,-15.051863,3.2490443,-11.802819
1013.0,76,-15.051406,3.2240984,-11.827308,-15.05141,3.2869839,-11.764426
