,,CRD,CRD,CRD,CLIRAD,CLIRAD,CLIRAD
,,flug,fldg,fnetg,flug,fldg,fnetg
pressure,level,,,,,,
0.0,1,-23.04562,0.0,-23.04562,,,
1e-08,1,,,,-22.641528,1.8474578e-06,-22.641526000000002
0.0006244,2,-23.045625,1.4343139e-06,-23.045623000000003,-22.641532,2.8597728e-06,-22.641529000000002
0.0008759,3,-23.045627,2.0875182000000003e-06,-23.045625,-22.641533,3.3205349e-06,-22.64153
0.0012286,4,-23.04563,3.2210325e-06,-23.045627,-22.641535,4.1204849000000005e-06,-22.641531
0.0017234,5,-23.045635,5.1303282999999996e-06,-23.04563,-22.64154,5.4694984e-06,-22.641534
0.0024174,6,-23.045644,8.273194e-06,-23.045636,-22.641545999999998,7.6924132e-06,-22.641539
0.0033909,7,-23.045658,1.3360275999999999e-05,-23.045644,-22.641557000000002,1.1293611000000002e-05,-22.641545
0.0047565,8,-23.045679,2.1484011e-05,-23.045658,-22.641573,1.7049402e-05,-22.641556
0.006672,9,-23.045711999999998,3.4316192999999996e-05,-23.045678,-22.641598000000002,2.6147327e-05,-22.641572
0.0093589,10,-23.045763,5.4406440000000004e-05,-23.045707999999998,-22.641637,4.0401511999999995e-05,-22.641596
0.0131278,11,-23.045839,8.5616638e-05,-23.045754000000002,-22.641695000000002,6.2562912e-05,-22.641633
0.0184145,12,-23.045955,0.00013373067,-23.045821,-22.641784,9.680721e-05,-22.641687
0.0258302,13,-23.046128,0.00020743252,-23.045921,-22.641916000000002,0.00014941879,-22.641767
0.0362323,14,-23.046387,0.00031963513,-23.046067999999998,-22.642114000000003,0.00022987055,-22.641884
0.0508234,15,-23.046773,0.00048962183,-23.046284,-22.642408,0.00035248468,-22.642056
0.0712906,16,-23.047354000000002,0.00076321605,-23.046591,-22.642851999999998,0.00055153067,-22.6423
0.1,17,-23.0483,0.0013077384,-23.046992000000003,-22.643573999999997,0.00095282549,-22.642622
0.140271,18,-23.049828,0.002502519,-23.047325,-22.644747,0.0018493484,-22.642897
0.19676,19,-23.052095,0.0049858665,-23.047109,-22.646481,0.0037564368,-22.642725
0.275997,20,-23.055152,0.0099121281,-23.04524,-22.648785,0.007646946700000001,-22.641138
0.3871,21,-23.058719,0.019302391000000002,-23.039417,-22.65135,0.01530778,-22.636042
0.5431,22,-23.061657999999998,0.036570894,-23.025087,-22.653084,0.029915117999999997,-22.623169
0.7617,23,-23.060733,0.067172476,-22.993560000000002,-22.65111,0.056765743,-22.594344
1.0685,24,-23.049717,0.11912024,-22.930597,-22.640092000000003,0.10421669,-22.535875
1.4988,25,-23.024793,0.19582626,-22.828967000000002,-22.616533999999998,0.17810858,-22.438425
2.1024,26,-22.989373999999998,0.28842494,-22.700948999999998,-22.582876000000002,0.27178955,-22.311087
2.949,27,-22.946132000000002,0.38920988,-22.556922,-22.541273,0.37389723,-22.167376
4.1366,28,-22.900467000000003,0.49289906,-22.407567999999998,-22.496782999999997,0.47759733,-22.019185999999998
5.8025,29,-22.860691,0.60001471,-22.260676,-22.457548000000003,0.58690378,-21.870644
8.1392,30,-22.834582,0.71841012,-22.116172,-22.431031,0.7135918,-21.717439000000002
11.417,31,-22.833744,0.85416948,-21.979574,-22.428542,0.86528806,-21.563254
16.0147,32,-22.881560999999998,0.99945813,-21.882103,-22.473557,1.0303628,-21.443194000000002
22.464,33,-23.012168,1.1379377,-21.874230999999998,-22.601232999999997,1.1847709,-21.416462
31.5105,34,-23.261521,1.2715317,-21.989989,-22.851699,1.3277966,-21.523903
44.2001,35,-23.685476,1.4078648,-22.277612,-23.290886999999998,1.4668244,-21.824061999999998
62.0,36,-24.356033,1.5280081,-22.828025,-24.016853,1.5868448999999998,-22.430007999999997
85.775,37,-25.235308,1.61144,-23.623867999999998,-25.012076999999998,1.6714124,-23.340664
109.55,38,-25.990446,1.6623928,-24.328053,-25.883256,1.7238546000000001,-24.159401000000003
133.325,39,-26.640613000000002,1.7028736,-24.937739,-26.628403999999996,1.7653173,-24.863086
157.1,40,-27.241178,1.7366439999999999,-25.504534,-27.300596000000002,1.8002076,-25.500388
180.875,41,-27.779946000000002,1.7684189,-26.011526999999997,-27.884771,1.8325894,-26.052182000000002
204.65,42,-28.224245,1.8067563999999998,-26.417489,-28.35312,1.8697508000000003,-26.483369
228.425,43,-28.595373,1.8560762999999998,-26.739296000000003,-28.736277,1.9160979999999999,-26.820179
252.2,44,-28.917807,1.9143197,-27.003487,-29.063508000000002,1.9704473999999998,-27.093061
275.975,45,-29.190796999999996,1.9764736,-27.214322999999997,-29.336422,2.0284122,-27.308009999999996
299.75,46,-29.423699,2.0407908,-27.382908,-29.566291999999997,2.0884308999999996,-27.477860999999997
323.525,47,-29.632425,2.1089722,-27.523452000000002,-29.769982000000002,2.1521320999999998,-27.61785
347.3,48,-29.820538,2.1803362999999996,-27.640201,-29.951667999999998,2.2189186000000003,-27.73275
371.075,49,-29.988327,2.2533567000000003,-27.73497,-30.112187,2.2873697,-27.824818
394.85,50,-30.13887,2.3278637000000004,-27.811006,-30.254944000000002,2.357325,-27.897619
418.625,51,-30.275347999999997,2.4041301,-27.871218,-30.383328999999996,2.429059,-27.95427
442.4,52,-30.398525,2.4813777999999997,-27.917147999999997,-30.498337,2.5018507999999997,-27.996485999999997
466.175,53,-30.509172999999997,2.558865,-27.950308000000003,-30.600914000000003,2.5749937999999997,-28.025920000000003
489.95,54,-30.608116,2.6359517000000006,-27.972164000000003,-30.692021999999998,2.6478766,-28.044145
513.725,55,-30.697246000000003,2.7130052000000004,-27.984240000000003,-30.773571,2.7208338,-28.052737
537.5,56,-30.778153999999997,2.7904944,-27.987659000000004,-30.847146000000002,2.7943,-28.052846000000002
561.275,57,-30.851383000000002,2.8681571,-27.983226000000002,-30.913342999999998,2.8680234000000002,-28.04532
585.05,58,-30.917763,2.946154,-27.971609,-30.973,2.9421493,-28.030851000000002
608.825,59,-30.977908000000003,3.0245601000000004,-27.953348,-31.026746000000003,3.0167445,-28.010002000000004
632.6,60,-31.032126,3.1031527000000003,-27.928973,-31.074926,3.0915918,-27.983334000000003
656.375,61,-31.080856,3.1819472,-27.898909000000003,-31.117995,3.1667074,-27.951287
680.15,62,-31.124470000000002,3.2609418999999997,-27.863528000000002,-31.156349,3.2421011,-27.914247999999997
703.925,63,-31.163190000000004,3.3399204,-27.82327,-31.190237,3.3175689,-27.872668
727.7,64,-31.197326,3.4188697999999995,-27.778456,-31.219976000000003,3.3930925000000003,-27.826884000000003
751.475,65,-31.227193,3.4978623,-27.729331,-31.245877,3.4687400999999998,-27.777137
775.25,66,-31.253019000000002,3.5767896,-27.67623,-31.268178999999996,3.5444022000000004,-27.723777000000002
799.025,67,-31.275021000000002,3.6554519999999995,-27.619569,-31.287098999999998,3.6198904,-27.667208000000002
822.8,68,-31.293566,3.7340657999999998,-27.559501,-31.302985999999997,3.6954093999999995,-27.607576
846.575,69,-31.309053000000002,3.8128501000000004,-27.496203,-31.316197999999996,3.7711900999999997,-27.545008000000003
870.35,70,-31.321811,3.8915502,-27.430260999999998,-31.327037,3.8470112000000003,-27.480026000000002
894.125,71,-31.332153,3.9698638999999996,-27.362289,-31.335783000000003,3.9226021,-27.413180999999998
917.9,72,-31.340333,4.0476355,-27.292697999999998,-31.342665000000004,3.9978227,-27.344842
941.675,73,-31.346529999999998,4.1248652,-27.221665,-31.347849,4.0726723,-27.275177000000003
965.45,74,-31.350859000000003,4.2015229000000005,-27.149335999999998,-31.351449,4.1471151,-27.204334000000003
989.225,75,-31.353405,4.277548,-27.075857,-31.353554,4.2210830999999995,-27.132471000000002
1013.0,76,-31.354237,4.352908,-27.001329,-31.35424,4.294533900000001,-27.059706
