,,CRD,CRD,CRD,CLIRAD,CLIRAD,CLIRAD
,,flug,fldg,fnetg,flug,fldg,fnetg
pressure,level,,,,,,
0.0,1,-33.973919,0.0,-33.973919,,,
1e-08,1,,,,-34.013677,1.8651952e-06,-34.013676000000004
0.0006244,2,-33.973919,8.282641e-11,-33.973919,-34.013677,1.865238e-06,-34.013676000000004
0.0008759,3,-33.973919,1.1689271e-10,-33.973919,-34.013677,1.8647446000000001e-06,-34.013676000000004
0.0012286,4,-33.973919,1.6674048e-10,-33.973919,-34.013677,1.8637093999999998e-06,-34.013676000000004
0.0017234,5,-33.973919,2.3974112999999996e-10,-33.973919,-34.013677,1.8626607e-06,-34.013676000000004
0.0024174,6,-33.973919,3.4661697000000004e-10,-33.973919,-34.013677,1.8616086000000002e-06,-34.013676000000004
0.0033909,7,-33.973919,5.030999299999999e-10,-33.973919,-34.013677,1.8605633999999998e-06,-34.013676000000004
0.0047565,8,-33.973919,7.3217284e-10,-33.973919,-34.013677,1.8595419999999998e-06,-34.013676000000004
0.006672,9,-33.973919,1.0674435e-09,-33.973919,-34.013677,1.8585471e-06,-34.013676000000004
0.0093589,10,-33.973919,1.5580887e-09,-33.973919,-34.013677,1.8576193000000001e-06,-34.013676000000004
0.0131278,11,-33.973919,2.2760086e-09,-33.973919,-34.013677,1.8567812000000002e-06,-34.013676000000004
0.0184145,12,-33.973919,3.3263592e-09,-33.973919,-34.013677,1.8560949e-06,-34.013676000000004
0.0258302,13,-33.973919,4.8628718e-09,-33.973919,-34.013677,1.8556379999999999e-06,-34.013676000000004
0.0362323,14,-33.973919,7.110629e-09,-33.973919,-34.013677,1.8555092e-06,-34.013676000000004
0.0508234,15,-33.973919,1.0436425e-08,-33.973919,-34.013677,1.8555504e-06,-34.013676000000004
0.0712906,16,-33.973919,1.6051556999999998e-08,-33.973919,-34.013677,1.8523721e-06,-34.013676000000004
0.1,17,-33.973919,2.7343523e-08,-33.973919,-34.013677,1.8447738000000001e-06,-34.013676000000004
0.140271,18,-33.973919,5.122415900000001e-08,-33.973919,-34.013677,1.8384991000000002e-06,-34.013676000000004
0.19676,19,-33.973919,1.0127092e-07,-33.973919,-34.013677,1.8412735e-06,-34.013676000000004
0.275997,20,-33.973919,2.0506725e-07,-33.973919,-34.013677,1.8649767e-06,-34.013676000000004
0.3871,21,-33.973919,4.1807372999999996e-07,-33.973919,-34.013677,1.9331589e-06,-34.013676000000004
0.5431,22,-33.973919,8.5135312e-07,-33.973918,-34.013678000000006,2.0950968e-06,-34.013675
0.7617,23,-33.973919,1.6928036e-06,-33.973918,-34.013678000000006,2.4451353e-06,-34.013675
1.0685,24,-33.973919,3.0070645000000004e-06,-33.973915999999996,-34.013678000000006,3.0364460000000003e-06,-34.013675
1.4988,25,-33.973919,4.6689080000000005e-06,-33.973915000000005,-34.013678000000006,3.8153753e-06,-34.013674
2.1024,26,-33.973919,6.597134900000001e-06,-33.973913,-34.013678000000006,4.7324200999999994e-06,-34.013674
2.949,27,-33.97392,8.667058199999999e-06,-33.973911,-34.013678999999996,5.733433200000001e-06,-34.013673
4.1366,28,-33.973921000000004,1.0832490000000001e-05,-33.97391,-34.01368,6.7947369e-06,-34.013673
5.8025,29,-33.973921999999995,1.3086609e-05,-33.973909,-34.013681,7.9170984e-06,-34.013673
8.1392,30,-33.973924,1.5419525000000002e-05,-33.973909,-34.013682,9.1003981e-06,-34.013673
11.417,31,-33.973927,1.7815268e-05,-33.973909,-34.013684000000005,1.0346413e-05,-34.013674
16.0147,32,-33.973931,2.0261387e-05,-33.97391,-34.013687,1.1654966999999999e-05,-34.013675
22.464,33,-33.973935,2.2745855999999998e-05,-33.973913,-34.013690000000004,1.3026896e-05,-34.013677
31.5105,34,-33.973942,2.5258811e-05,-33.973915999999996,-34.013695,1.4456275e-05,-34.01368
44.2001,35,-33.973949,2.7753124e-05,-33.973921000000004,-34.0137,1.5914566e-05,-34.013684000000005
62.0,36,-33.973958,2.9929452e-05,-33.973928,-34.013707000000004,1.7283333e-05,-34.013690000000004
85.775,37,-33.973968,3.1502868e-05,-33.973936,-34.013715000000005,1.8404049e-05,-34.013697
109.55,38,-33.973976,3.2590782e-05,-33.973943,-34.013721999999994,1.923755e-05,-34.013703
133.325,39,-33.973985,3.4018399e-05,-33.973951,-34.013729999999995,2.0312621e-05,-34.013709999999996
157.1,40,-33.973997,3.6641197e-05,-33.973960999999996,-34.013740999999996,2.2190874e-05,-34.013719
180.875,41,-33.974015,4.147664799999999e-05,-33.973973,-34.013754999999996,2.552759e-05,-34.013729999999995
204.65,42,-33.974047,5.2542470999999994e-05,-33.973994,-34.013782,3.3092214e-05,-34.013748
228.425,43,-33.974133,8.960008200000001e-05,-33.974044,-34.013855,5.8811186e-05,-34.013796
252.2,44,-33.974334000000006,0.00019351435,-33.974140999999996,-34.014028,0.00013169542,-34.013897
275.975,45,-33.974745,0.00044691624,-33.974298,-34.014387,0.00031028694,-34.014076
299.75,46,-33.975505,0.00099864207,-33.974507,-34.015057,0.0007015666900000001,-34.014356
323.525,47,-33.976805999999996,0.0020915193,-33.974714,-34.016214,0.0014864341,-34.014728000000005
347.3,48,-33.978885,0.0040901204,-33.974795,-34.018066,0.0029337124,-34.015132
371.075,49,-33.981988,0.0074589061,-33.974529,-34.020844,0.0054171175,-34.015427
394.85,50,-33.986149,0.012508693999999999,-33.97364,-34.024602,0.009235170400000001,-34.015367
418.625,51,-33.991574,0.019810878,-33.971763,-34.02953,0.014890036,-34.01464
442.4,52,-33.998472,0.030037979,-33.968434,-34.035804999999996,0.022968197000000003,-34.012837
466.175,53,-34.007053000000006,0.043961634000000006,-33.963091,-34.043652,0.034229929,-34.009422
489.95,54,-34.017520000000005,0.062452822000000005,-33.955067,-34.053295,0.049565233,-34.00373
513.725,55,-34.030043,0.086438106,-33.943605,-34.064931,0.069940777,-33.99499
537.5,56,-34.044791,0.11696582,-33.927825,-34.078641,0.09619558800000001,-33.982446
561.275,57,-34.061879,0.15511978,-33.90676,-34.094576,0.12939464,-33.965182
585.05,58,-34.081378,0.20204721,-33.879331,-34.11285,0.17064306,-33.942207
608.825,59,-34.103305999999996,0.25897238,-33.844334,-34.133532,0.22109677,-33.912434999999995
632.6,60,-34.127578,0.32709002,-33.800488,-34.156601,0.28188888,-33.874713
656.375,61,-34.154022999999995,0.40763796,-33.746386,-34.18189,0.35401205,-33.827878000000005
680.15,62,-34.182368,0.50169427,-33.680673999999996,-34.209156,0.438474,-33.770682
703.925,63,-34.212324,0.60994815,-33.602375,-34.238205,0.536337,-33.701868
727.7,64,-34.243921,0.73300225,-33.510919,-34.269121999999996,0.64886419,-33.620258
751.475,65,-34.279973,0.88062398,-33.399349,-34.304646999999996,0.78624627,-33.518401000000004
775.25,66,-34.320825,1.051971,-33.268854,-34.344992,0.94939365,-33.395598
799.025,67,-34.366523,1.2464803999999998,-33.120042,-34.390044,1.1394822,-33.250561
822.8,68,-34.416579999999996,1.4640046,-32.952575,-34.439081,1.3575297,-33.081551
846.575,69,-34.467701,1.6950001000000001,-32.7727,-34.488689,1.5943684999999999,-32.894321000000005
870.35,70,-34.518205,1.9385066000000002,-32.579698,-34.537181,1.8488016,-32.68838
894.125,71,-34.567054999999996,2.1963679,-32.370687,-34.583482000000004,2.1224981,-32.460984
917.9,72,-34.613163,2.4703925,-32.142771,-34.626484999999995,2.4172176,-32.209268
941.675,73,-34.655132,2.7621147999999995,-31.893016999999997,-34.664838,2.7345957999999997,-31.930242
965.45,74,-34.691014,3.0728972999999997,-31.618116999999998,-34.696728,3.0763189,-31.620409000000002
989.225,75,-34.717739,3.4037788,-31.313959999999998,-34.719597,3.4440411,-31.275555999999998
1013.0,76,-34.728642,3.756388,-30.972254,-34.728640000000006,3.8397828,-30.888857
