,,CRD,CRD,CRD,CLIRAD,CLIRAD,CLIRAD
,,flug,fldg,fnetg,flug,fldg,fnetg
pressure,level,,,,,,
0.0,1,-25.15374,0.0,-25.15374,,,
1e-08,1,,,,-14.808413,1.8182503e-06,-14.808410999999998
0.0006244,2,-25.153758,4.8001418e-05,-25.15371,-14.808503,3.9798771e-05,-14.808463
0.0008759,3,-25.153766,6.731319499999999e-05,-25.153699,-14.808534,9.2470818e-05,-14.808442000000001
0.0012286,4,-25.153776,9.4817975e-05,-25.153682,-14.808573,0.00016617457,-14.808407
0.0017234,5,-25.153791000000002,0.00013390648999999998,-25.153657,-14.808619,0.0002699807,-14.808349
0.0024174,6,-25.153810999999997,0.00018927451,-25.153622,-14.808672,0.00041681602999999996,-14.808254999999999
0.0033909,7,-25.153839,0.00026734765,-25.153571,-14.808731,0.00062507315,-14.808106
0.0047565,8,-25.153876999999998,0.00037684888,-25.1535,-14.808794,0.00092082584,-14.807873
0.006672,9,-25.15393,0.00052933683,-25.153401000000002,-14.808854,0.0013408570000000002,-14.807513
0.0093589,10,-25.154004,0.0007398230900000001,-25.153264,-14.8089,0.0019367092,-14.806963
0.0131278,11,-25.154107,0.0010271937,-25.15308,-14.808913,0.0027800076,-14.806132999999999
0.0184145,12,-25.154254,0.0014142883,-25.152839,-14.808860999999998,0.0039690624,-14.804892
0.0258302,13,-25.154462,0.0019272701999999999,-25.152535,-14.808694000000001,0.0056359509,-14.803057999999998
0.0362323,14,-25.154767,0.0025942249,-25.152173,-14.808329999999998,0.007953461,-14.800376000000002
0.0508234,15,-25.155225,0.0034493540999999996,-25.151776,-14.807631,0.011144503,-14.796486999999999
0.0712906,16,-25.155898,0.004627318,-25.151270999999998,-14.806332999999999,0.015568803,-14.790764000000001
0.1,17,-25.156814999999998,0.0064204377,-25.150395,-14.803954000000001,0.021859012999999997,-14.782095000000002
0.140271,18,-25.157998000000003,0.0091385071,-25.148858999999998,-14.799838000000001,0.030917471000000002,-14.768920999999999
0.19676,19,-25.159464,0.01308764,-25.146376,-14.793128,0.043817589000000004,-14.749310999999999
0.275997,20,-25.161175,0.018692926000000002,-25.142482,-14.782651999999999,0.061764717000000004,-14.720887
0.3871,21,-25.162935,0.026634316,-25.136301,-14.76684,0.086329436,-14.68051
0.5431,22,-25.164042000000002,0.038096153,-25.125946,-14.743559,0.12025012,-14.623308999999999
0.7617,23,-25.162384,0.054560134,-25.107824,-14.710749,0.16819948,-14.542549
1.0685,24,-25.157088,0.074864727,-25.082223000000003,-14.669918,0.23465862,-14.435259
1.4988,25,-25.149188,0.097494859,-25.051693,-14.624583,0.32290191,-14.301681
2.1024,26,-25.138748,0.12337547,-25.015373,-14.576857,0.43631351,-14.140543
2.949,27,-25.126572,0.15258438,-24.973987,-14.529585999999998,0.57797862,-13.951607000000001
4.1366,28,-25.112872,0.18626569,-24.926607,-14.484952999999999,0.75290972,-13.732042999999999
5.8025,29,-25.097565,0.22558942,-24.871976,-14.446275,0.96812883,-13.478145999999999
8.1392,30,-25.080739,0.27137906,-24.809359,-14.418844,1.2311972,-13.187645999999999
11.417,31,-25.06279,0.32425274,-24.738538000000002,-14.411415,1.5466153999999999,-12.864799
16.0147,32,-25.044626,0.38464206,-24.659983999999998,-14.437005,1.9141795,-12.522826
22.464,33,-25.027922,0.45290008,-24.575022,-14.514084,2.3289984,-12.185086
31.5105,34,-25.015168,0.52946683,-24.485701000000002,-14.668776999999999,2.7833177000000004,-11.885458999999999
44.2001,35,-25.007926,0.61412496,-24.393801,-14.9383,3.2697789,-11.668521
62.0,36,-25.023453,0.6939248,-24.329529,-15.377185999999998,3.7740398999999996,-11.603146
85.775,37,-25.101329,0.7554485,-24.345879999999998,-16.017117000000002,4.2701257,-11.746991
109.55,38,-25.236454000000002,0.80967199,-24.426782,-16.692529,4.7442252,-11.948303
133.325,39,-25.410049,0.91276193,-24.497287,-17.385867,5.233002099999999,-12.152865
157.1,40,-25.598522,1.0874636,-24.511058,-18.089326,5.7883447,-12.300981
180.875,41,-25.798937,1.3139391000000002,-24.484998,-18.788398,6.4378227,-12.350575
204.65,42,-26.009904000000002,1.5896843999999999,-24.420219,-19.477334,7.2003758,-12.276958
228.425,43,-26.233245,1.9254828999999998,-24.307762,-20.162372,8.090135,-12.072237
252.2,44,-26.469663,2.3324484,-24.137214999999998,-20.843585,9.114236199999999,-11.729349000000001
275.975,45,-26.720428000000002,2.8203481,-23.90008,-21.522202,10.271233,-11.250969
299.75,46,-26.98705,3.3950595,-23.591991,-22.200309,11.548873,-10.651437
323.525,47,-27.271151,4.0600037,-23.211147,-22.880167,12.92558,-9.9545864
347.3,48,-27.5745,4.8176477,-22.756853,-23.563814999999998,14.373960999999998,-9.1898546
371.075,49,-27.898024,5.665577799999999,-22.232446,-24.253054000000002,15.859567000000002,-8.393487
394.85,50,-28.236603000000002,6.581397,-21.655206,-24.937798,17.338485000000002,-7.5993127000000005
418.625,51,-28.589927000000003,7.5695552,-21.020372000000002,-25.61766,18.777895,-6.8397649000000005
442.4,52,-28.957566999999997,8.632432000000001,-20.325135,-26.292353000000002,20.157138,-6.1352155
466.175,53,-29.338919,9.7708561,-19.568063000000002,-26.961534000000004,21.464731,-5.4968029000000005
489.95,54,-29.733262,10.984025,-18.749236,-27.62476,22.695864,-4.9288963
513.725,55,-30.139393,12.267891,-17.871502,-28.280867999999998,23.851035999999997,-4.429831500000001
537.5,56,-30.556159,13.617617999999998,-16.938541,-28.929734000000003,24.935441,-3.9942928999999996
561.275,57,-30.981881,15.024961,-15.956920000000002,-29.569939,25.956432999999997,-3.6135066
585.05,58,-31.414424,16.479956,-14.934467999999999,-30.199092999999998,26.921896999999998,-3.2771968
608.825,59,-31.850962,17.971452,-13.87951,-30.813053999999998,27.839242,-2.9738119999999997
632.6,60,-32.287056,19.485641,-12.801414999999999,-31.404389000000002,28.714425,-2.6899648
656.375,61,-32.715947,21.008101,-11.707847000000001,-31.963123,29.551695000000002,-2.4114286
680.15,62,-33.127714000000005,22.520677,-10.607037,-32.478108,30.351062,-2.127046
703.925,63,-33.512324,23.999211,-9.5131132,-32.942781,31.104662,-1.8381181
727.7,64,-33.868502,25.41864,-8.4498619,-33.362102,31.796915000000002,-1.5651874
751.475,65,-34.221275,26.81973,-7.4015452999999995,-33.769348,32.422181,-1.3471665000000002
775.25,66,-34.587795,28.158182,-6.429613,-34.186703,32.977789,-1.2089148
799.025,67,-34.980983,29.417951000000002,-5.5630326,-34.628116999999996,33.483955,-1.1441624
822.8,68,-35.404638,30.599047,-4.8055913,-35.098546999999996,33.974272,-1.1242754
846.575,69,-35.843057,31.676332000000002,-4.1667247000000005,-35.583139,34.469671000000005,-1.1134674999999998
870.35,70,-36.284878000000006,32.664761,-3.620117,-36.070871000000004,34.978790000000004,-1.0920805
894.125,71,-36.723532,33.579533000000005,-3.143999,-36.55592,35.498669,-1.057251
917.9,72,-37.154552,34.430302000000005,-2.7242504000000003,-37.035728999999996,36.021516999999996,-1.0142114
941.675,73,-37.573029,35.224399,-2.3486302,-37.507661,36.541022,-0.9666395
965.45,74,-37.970561,35.967965,-2.002596,-37.958815,37.054089000000005,-0.90472632
989.225,75,-38.325967999999996,36.666408000000004,-1.6595602999999999,-38.332691,37.559217,-0.77347363
1013.0,76,-38.491734,37.325339,-1.1663951000000001,-38.49173,38.056111,-0.43561932
