,,CRD,CRD,CRD,CLIRAD,CLIRAD,CLIRAD
,,flug,fldg,fnetg,flug,fldg,fnetg
pressure,level,,,,,,
0.0,1,-14.290363000000001,0.0,-14.290363000000001,,,
1e-08,1,,,,-14.027284,0.00018811556,-14.027095999999998
0.0006244,2,-14.291621,0.0062000669,-14.285421,-14.028476999999999,0.0035426731,-14.024934
0.0008759,3,-14.292224,0.0077028566,-14.284522,-14.028969,0.004780981,-14.024188
0.0012286,4,-14.292966,0.0096250948,-14.283341,-14.029592999999998,0.0065176711,-14.023075
0.0017234,5,-14.293870000000002,0.012014292,-14.281856,-14.030375,0.0088883747,-14.021486
0.0024174,6,-14.294965,0.014932309,-14.280033,-14.031344,0.012007086,-14.019337
0.0033909,7,-14.296284,0.018468833,-14.277816,-14.032535999999999,0.015930363,-14.016606
0.0047565,8,-14.297864,0.022753568,-14.275110999999999,-14.033988,0.02063223,-14.013354999999999
0.006672,9,-14.299741000000001,0.027972035,-14.271769,-14.035738,0.026054467999999997,-14.009682999999999
0.0093589,10,-14.301953,0.03438511,-14.267567999999999,-14.037823999999999,0.032263894,-14.005560000000001
0.0131278,11,-14.304529999999998,0.042344197,-14.262185999999998,-14.040278,0.03966595,-14.000612
0.0184145,12,-14.307484,0.05230522,-14.255179,-14.04311,0.049080686,-13.994029000000001
0.0258302,13,-14.310773999999999,0.064835348,-14.245939000000002,-14.046275,0.061556842,-13.984717999999999
0.0362323,14,-14.314110999999999,0.080605665,-14.233506,-14.049479999999999,0.078117323,-13.971362
0.0508234,15,-14.317192000000002,0.10001278,-14.217179000000002,-14.052420000000001,0.099218355,-13.953201000000002
0.0712906,16,-14.320175,0.12323414,-14.196941,-14.055217,0.12453906,-13.930677
0.1,17,-14.323170999999999,0.15119206,-14.171978,-14.057926,0.15376698,-13.904159
0.140271,18,-14.325842999999999,0.18564611,-14.140196,-14.060157,0.1872933,-13.872864000000002
0.19676,19,-14.327476999999998,0.22909163,-14.098385999999998,-14.061134,0.22742703,-13.833707
0.275997,20,-14.326557999999999,0.28528,-14.041278,-14.059303,0.27972502,-13.779578
0.3871,21,-14.319310999999999,0.35958291,-13.959728,-14.051064000000002,0.35260925,-13.698455
0.5431,22,-14.292482000000001,0.45859511,-13.833886999999999,-14.023792000000002,0.45518747,-13.568604
0.7617,23,-14.238760999999998,0.57346265,-13.665298000000002,-13.971243,0.5788637,-13.392379
1.0685,24,-14.170056,0.68910401,-13.480951999999998,-13.904588,0.70201414,-13.202573999999998
1.4988,25,-14.092345000000002,0.81071976,-13.281626000000001,-13.829035999999999,0.81559149,-13.013444999999999
2.1024,26,-14.004916,0.94681499,-13.058100999999999,-13.742947000000001,0.92879297,-12.814153999999998
2.949,27,-13.908835999999999,1.1019696,-12.806866000000001,-13.647066,1.0722146000000001,-12.574850999999999
4.1366,28,-13.814070999999998,1.2821945,-12.531875999999999,-13.550719,1.2787521000000002,-12.271967
5.8025,29,-13.730626999999998,1.5088698999999999,-12.221757,-13.464692000000001,1.5490146999999999,-11.915678
8.1392,30,-13.651048000000001,1.8173004000000001,-11.833748,-13.380752,1.8738278999999998,-11.506924
11.417,31,-13.570395999999999,2.2267866,-11.34361,-13.293842000000001,2.2750949,-11.018747
16.0147,32,-13.503915,2.7455084,-10.758405999999999,-13.22117,2.8576499,-10.36352
22.464,33,-13.505078,3.3898816,-10.115196000000001,-13.221964999999999,3.6695141000000002,-9.5524508
31.5105,34,-13.601566,4.2352677000000005,-9.366297900000001,-13.326139999999999,4.6674856,-8.658654400000001
44.2001,35,-13.746123,5.3548375,-8.3912855,-13.484164999999999,5.8107562,-7.673408500000001
62.0,36,-13.916374,6.6882731,-7.2281009,-13.670932999999998,7.2006198,-6.4703134
85.775,37,-14.071263,8.066562,-6.0047008,-13.837481,8.8379013,-4.999579499999999
109.55,38,-14.143895,9.096176,-5.0477189000000005,-13.912763,10.055921000000001,-3.856842
133.325,39,-14.172398000000001,9.8221879,-4.350210400000001,-13.938341000000001,10.783612,-3.1547287
157.1,40,-14.205691,10.335774,-3.8699169999999996,-13.967203,11.165872,-2.8013312999999997
180.875,41,-14.247556,10.734246,-3.5133101000000004,-14.002327,11.390588000000001,-2.611739
204.65,42,-14.300698,11.057142,-3.2435557999999998,-14.044770999999999,11.555117,-2.4896541
228.425,43,-14.369704999999998,11.326057,-3.0436475,-14.096847,11.702502,-2.3943451000000002
252.2,44,-14.464682999999999,11.554138,-2.9105446,-14.165223000000001,11.845627,-2.3195962000000003
275.975,45,-14.62734,11.751017,-2.8763229,-14.293722,11.988125,-2.3055976
299.75,46,-15.01775,11.950421,-3.0673288,-14.667709,12.159864,-2.5078456
323.525,47,-15.688954,12.33285,-3.3561042999999997,-15.354899,12.554608,-2.8002912
347.3,48,-16.469042,13.011291,-3.4577507000000005,-16.163739,13.283362,-2.8803771
371.075,49,-17.249182,13.847138000000001,-3.4020446000000004,-16.971429999999998,14.169552,-2.8018785
394.85,50,-18.019006,14.719883,-3.2991232000000004,-17.766236,15.075095000000001,-2.6911412
418.625,51,-18.776736,15.602191,-3.1745447,-18.547155,15.978257999999999,-2.5688972000000003
442.4,52,-19.52075,16.483354000000002,-3.0373956,-19.31281,16.875225,-2.4375853
466.175,53,-20.249048000000002,17.356632,-2.8924164,-20.061729999999997,17.761056,-2.3006740000000003
489.95,54,-20.959058,18.216851000000002,-2.7422067,-20.7909,18.632026,-2.1588745
513.725,55,-21.647648999999998,19.05936,-2.5882885,-21.497243,19.483082999999997,-2.01416
537.5,56,-22.311019,19.879627,-2.4313912,-22.177667,20.310319,-1.8673478
561.275,57,-22.945093,20.672794,-2.2722994,-22.828044000000002,21.108012,-1.7200313000000003
585.05,58,-23.545801,21.433902,-2.1118989,-23.444125,21.870601,-1.573524
608.825,59,-24.109661,22.158035,-1.9516262999999998,-24.022081,22.592685999999997,-1.4293951
632.6,60,-24.634535,22.840819,-1.7937162,-24.560082,23.269493,-1.2905898
656.375,61,-25.119979999999998,23.479232,-1.6407488999999997,-25.057307,23.898847,-1.1584603
680.15,62,-25.567237,24.072038,-1.4951987,-25.515887,24.479381,-1.0365069
703.925,63,-25.978919,24.620053,-1.3588659,-25.937877,25.012913,-0.92496357
727.7,64,-26.358347,25.125839000000003,-1.232508,-26.326793,25.501860999999998,-0.82493222
751.475,65,-26.708432000000002,25.593176,-1.1152563,-26.685646000000002,25.95062,-0.73502552
775.25,66,-27.030316999999997,26.026057,-1.0042608,-27.015697999999997,26.363689,-0.65200909
799.025,67,-27.321205,26.427411,-0.89379442,-27.314290999999997,26.744403000000002,-0.56988859
822.8,68,-27.570227000000003,26.796941999999998,-0.77328558,-27.571334999999998,27.092774,-0.47856045
846.575,69,-27.753706,27.126637,-0.62706918,-27.762439,27.401189000000002,-0.36125052
870.35,70,-27.840025,27.394365999999998,-0.44565868,-27.854867,27.646449,-0.20841853
894.125,71,-27.814051,27.565965000000002,-0.24808593,-27.831901000000002,27.79382,-0.038080906
917.9,72,-27.696828000000004,27.61901,-0.077817807,-27.714427,27.821091,0.10666446
941.675,73,-27.528699,27.566715000000002,0.038015844,-27.543909000000003,27.743026,0.1991168
965.45,74,-27.342436,27.445644,0.10320825,-27.354360999999997,27.59765,0.243289
989.225,75,-27.158389,27.288457,0.13006814,-27.1645,27.418393,0.25389282
1013.0,76,-27.037219,27.114389000000003,0.077170015,-27.03722,27.223841999999998,0.18662174
