,,CRD,CRD,CRD,CLIRAD,CLIRAD,CLIRAD
,,flug,fldg,fnetg,flug,fldg,fnetg
pressure,level,,,,,,
0.0,1,-39.98495,0.0,-39.98495,,,
1e-08,1,,,,-40.085227,0.00018312458999999998,-40.085044
0.0006244,2,-39.98495,4.1375294e-08,-39.98495,-40.085227,0.00018315315,-40.085044
0.0008759,3,-39.98495,5.8265227e-08,-39.98495,-40.085227,0.00018317043,-40.085044
0.0012286,4,-39.98495,8.2613001e-08,-39.98495,-40.085227,0.00018319878,-40.085044
0.0017234,5,-39.984951,1.1774047999999999e-07,-39.98495,-40.085227,0.0001832348,-40.085044
0.0024174,6,-39.984951,1.6840729e-07,-39.98495,-40.085227,0.00018328166,-40.085044
0.0033909,7,-39.984951,2.4148623e-07,-39.98495,-40.085227,0.00018334407,-40.085044
0.0047565,8,-39.984951,3.4688355e-07,-39.98495,-40.085227,0.00018342880000000002,-40.085043
0.006672,9,-39.984951,4.9887212e-07,-39.98495,-40.085227,0.00018354571,-40.085043
0.0093589,10,-39.984951,7.180364399999999e-07,-39.98495,-40.085227,0.0001837088,-40.085043
0.0131278,11,-39.984951,1.0340397e-06,-39.98495,-40.085227,0.00018393861,-40.085043
0.0184145,12,-39.984951,1.4896452999999999e-06,-39.98495,-40.085227,0.00018426502,-40.085043
0.0258302,13,-39.984952,2.1464788e-06,-39.98495,-40.085228,0.00018473049999999998,-40.085043
0.0362323,14,-39.984952,3.0934477999999996e-06,-39.984949,-40.085228,0.00018539642,-40.085043
0.0508234,15,-39.984953000000004,4.4688994e-06,-39.984947999999996,-40.085229,0.0001863611,-40.085042
0.0712906,16,-39.984953999999995,6.646113900000001e-06,-39.984947,-40.085229,0.00018792165,-40.085042
0.1,17,-39.984955,1.0509467999999999e-05,-39.984945,-40.085229999999996,0.00019071147,-40.08504
0.140271,18,-39.984956,1.7604012e-05,-39.984939000000004,-40.085231,0.00019575984,-40.085035999999995
0.19676,19,-39.984957,3.0562966e-05,-39.984926,-40.085232,0.00020485207,-40.085027000000004
0.275997,20,-39.984955,5.4054654000000004e-05,-39.984901,-40.085229999999996,0.00022120283,-40.085009
0.3871,21,-39.984947,9.6300414e-05,-39.984851,-40.085225,0.00025050417,-40.084975
0.5431,22,-39.984927,0.00017172775,-39.984755,-40.085212,0.00030320534,-40.084908
0.7617,23,-39.984883,0.00030173031,-39.984581,-40.085181,0.00039617147000000003,-40.084785
1.0685,24,-39.984809999999996,0.00049373236,-39.984316,-40.085131,0.00053693562,-40.084594
1.4988,25,-39.984716999999996,0.00073715071,-39.983979999999995,-40.08507,0.00072101709,-40.084348999999996
2.1024,26,-39.984611,0.0010263446,-39.983584,-40.085002,0.0009481800500000001,-40.084053999999995
2.949,27,-39.9845,0.0013504748,-39.98315,-40.084938,0.0012146094,-40.083724
4.1366,28,-39.984393,0.0017070287,-39.982686,-40.084885,0.0015221063,-40.083363
5.8025,29,-39.984295,0.0020984527,-39.982197,-40.084851,0.0018763507999999998,-40.082975
8.1392,30,-39.984215999999996,0.0025291636,-39.981687,-40.084846,0.0022831224,-40.082563
11.417,31,-39.984169,0.0030062612,-39.981163,-40.084885,0.0027490986,-40.082136
16.0147,32,-39.984175,0.003539964,-39.980635,-40.084987,0.0032811208,-40.081706
22.464,33,-39.984263,0.0041435363,-39.98012,-40.085178000000006,0.0038867464,-40.081292
31.5105,34,-39.984475,0.0048321729,-39.979642,-40.085493,0.0045724651,-40.080921000000004
44.2001,35,-39.984868,0.0056159679,-39.979252,-40.085976,0.005337863399999999,-40.080638
62.0,36,-39.985535,0.0064300294,-39.979105,-40.086698,0.0061360214,-40.080562
85.775,37,-39.986507,0.0071640113,-39.979343,-40.087683,0.006875348000000001,-40.080808000000005
109.55,38,-39.987505,0.0077553812,-39.979749,-40.088665,0.0074689317000000005,-40.081196000000006
133.325,39,-39.98858,0.0084987574,-39.980081,-40.089709,0.0081787028,-40.08153
157.1,40,-39.989779,0.009669928000000001,-39.980109999999996,-40.090866999999996,0.009236681,-40.08163
180.875,41,-39.991194,0.01154248,-39.979651000000004,-40.092228000000006,0.010875013999999999,-40.081353
204.65,42,-39.993332,0.01528853,-39.978044,-40.094314000000004,0.014136909,-40.080177
228.425,43,-39.998184,0.026128598,-39.972055,-40.099163,0.023838152,-40.075325
252.2,44,-40.007636,0.051668582000000005,-39.955968,-40.108768,0.047759155,-40.061008
275.975,45,-40.02405,0.10239499,-39.921655,-40.125572,0.097629947,-40.027941999999996
299.75,46,-40.050132,0.19014772,-39.859984000000004,-40.152337,0.18675308,-39.965584
323.525,47,-40.088815000000004,0.32651163,-39.762303,-40.191990999999994,0.32600579,-39.865984999999995
347.3,48,-40.143212,0.52178045,-39.621432,-40.247443,0.52306535,-39.724378
371.075,49,-40.215759999999996,0.78167229,-39.434088,-40.321022,0.78614227,-39.53488
394.85,50,-40.304049,1.0962553,-39.207794,-40.410118,1.1076676,-39.302451
418.625,51,-40.409251,1.4728546,-38.936396,-40.515698,1.4883828000000001,-39.027315
442.4,52,-40.532308,1.9184497,-38.613858,-40.638512,1.9248671999999998,-38.713645
466.175,53,-40.67392,2.4397081000000003,-38.234212,-40.779243,2.4202168,-38.359026
489.95,54,-40.83457,3.0429732000000005,-37.791596999999996,-40.938378,2.9860661,-37.952312
513.725,55,-41.014201,3.7329793,-37.281221,-41.115801,3.6364882000000005,-37.479313
537.5,56,-41.212711,4.5147683,-36.697943,-41.311479999999996,4.3817,-36.92978
561.275,57,-41.429408,5.3911359,-36.038272,-41.524762,5.2218051,-36.302957
585.05,58,-41.663140000000006,6.3635917,-35.299549,-41.754533,6.149703400000001,-35.60483
608.825,59,-41.912212,7.4325327,-34.479679,-41.99913,7.158235899999999,-34.840894
632.6,60,-42.17373,8.5954776,-33.578253000000004,-42.255714000000005,8.2441868,-34.011528000000006
656.375,61,-42.443435,9.8487467,-32.594688,-42.520414,9.413263699999998,-33.107151
680.15,62,-42.715090000000004,11.184546000000001,-31.530544,-42.787479,10.672861,-32.114618
703.925,63,-42.982077000000004,12.58892,-30.393157000000002,-43.050613,12.022374000000001,-31.028239000000003
727.7,64,-43.242698,14.047126,-29.195571,-43.308318,13.454085000000001,-29.854233
751.475,65,-43.51895,15.637198999999999,-27.881751,-43.582283000000004,15.046426,-28.535857
775.25,66,-43.819553000000006,17.311429,-26.508124,-43.880718,16.745894,-27.134824
799.025,67,-44.15101,19.03717,-25.11384,-44.209521,18.504989000000002,-25.704532
822.8,68,-44.514133,20.792839999999998,-23.721294,-44.569306,20.291383,-24.277923
846.575,69,-44.889972,22.498155,-22.391817,-44.941068,22.018803,-22.922265
870.35,70,-45.267463,24.150582999999997,-21.116879,-45.313863,23.689191,-21.624672
894.125,71,-45.640297,25.763185999999997,-19.877111,-45.681197,25.325934,-20.355263
917.9,72,-46.003189,27.344712,-18.658476999999998,-46.037682000000004,26.947778000000003,-19.089904
941.675,73,-46.349707,28.900127,-17.449579,-46.37688,28.566696999999998,-17.810184
965.45,74,-46.669876,30.432119,-16.237757000000002,-46.688025,30.188584000000002,-16.49944
989.225,75,-46.943395,31.941128000000003,-15.002267000000002,-46.95002,31.812678000000002,-15.137343
1013.0,76,-47.067549,33.429241,-13.638307999999999,-47.06755,33.436136,-13.631414000000001
