,,CRD,CRD,CRD,CLIRAD,CLIRAD,CLIRAD
,,flug,fldg,fnetg,flug,fldg,fnetg
pressure,level,,,,,,
0.0,1,-34.370336,0.0,-34.370336,,,
1e-08,1,,,,-34.159553,5.7008026e-07,-34.159553
0.0006244,2,-34.370353,0.00042286191,-34.369931,-34.159569,0.00025349183,-34.159316
0.0008759,3,-34.37036,0.00056016057,-34.3698,-34.159576,0.00035012997000000005,-34.159226000000004
0.0012286,4,-34.37037,0.0007348719500000001,-34.369634999999995,-34.159584,0.00048169965999999995,-34.159103
0.0017234,5,-34.370381,0.00095363642,-34.369428000000006,-34.159595,0.00065836993,-34.158937
0.0024174,6,-34.370396,0.0012231921000000002,-34.369172999999996,-34.159609,0.00089104758,-34.158718
0.0033909,7,-34.370416,0.0015508059,-34.368865,-34.159628000000005,0.0011899487,-34.158438000000004
0.0047565,8,-34.370441,0.0019443345000000002,-34.368496,-34.159653000000006,0.0015620967,-34.158091
0.006672,9,-34.370473,0.0024121238000000002,-34.368061,-34.159684999999996,0.002008924,-34.157676
0.0093589,10,-34.370515999999995,0.0029625369,-34.367554,-34.159727000000004,0.0025264463,-34.157201
0.0131278,11,-34.370574,0.0036033214,-34.36697,-34.159784,0.0031120698999999997,-34.156672
0.0184145,12,-34.370652,0.0043417964,-34.366310999999996,-34.159863,0.0037781442,-34.156085
0.0258302,13,-34.370764,0.0051856313,-34.365578,-34.159974,0.004559371400000001,-34.155415000000005
0.0362323,14,-34.370932,0.0061446078,-34.364788,-34.160142,0.0055040196,-34.154637
0.0508234,15,-34.371225,0.007241805,-34.363984,-34.160426,0.0066544202,-34.153772
0.0712906,16,-34.371691999999996,0.00861385,-34.363078,-34.160872,0.0081073949,-34.152765
0.1,17,-34.372301,0.01048584,-34.361815,-34.161445,0.0099978751,-34.151447
0.140271,18,-34.373033,0.01301606,-34.360017,-34.162121,0.01240007,-34.149721
0.19676,19,-34.373896,0.016388808,-34.357507,-34.162902,0.015470215,-34.147432
0.275997,20,-34.37488,0.020932476999999998,-34.353947999999995,-34.163765999999995,0.019604108999999998,-34.144162
0.3871,21,-34.375919,0.027177668,-34.348741,-34.164629,0.025434277999999998,-34.139195
0.5431,22,-34.376727,0.035989265,-34.340738,-34.165178999999995,0.033759314,-34.131419
0.7617,23,-34.376334,0.048502815,-34.327831,-34.164460999999996,0.045492082999999996,-34.118969
1.0685,24,-34.37425,0.065202458,-34.309048,-34.161984000000004,0.061459389,-34.100524
1.4988,25,-34.370666,0.08692825300000001,-34.283738,-34.157899,0.083630555,-34.074269
2.1024,26,-34.365195,0.11575375,-34.249441,-34.151795,0.11505568,-34.036739000000004
2.949,27,-34.357799,0.15372836,-34.204071,-34.143656,0.15651912,-33.987136
4.1366,28,-34.348116999999995,0.2042031,-34.143914,-34.13308,0.2104412,-33.922639000000004
5.8025,29,-34.33545,0.27158184,-34.063868,-34.119476,0.27853262,-33.840942999999996
8.1392,30,-34.318946000000004,0.36135055,-33.957595,-34.101898,0.36356075,-33.738338
11.417,31,-34.297622,0.48058314,-33.817039,-34.079453,0.47638184,-33.603071
16.0147,32,-34.270434,0.63835444,-33.63208,-34.051079,0.6302381,-33.420840999999996
22.464,33,-34.236403,0.84602368,-33.390378999999996,-34.01591,0.83076226,-33.185147
31.5105,34,-34.194319,1.1173046,-33.077014,-33.97272,1.0962607,-32.876459000000004
44.2001,35,-34.138627,1.4675631000000002,-32.671064,-33.916569,1.4448845,-32.471685
62.0,36,-34.08566,1.8970734,-32.188586,-33.865245,1.8633784,-32.001866
85.775,37,-34.116820000000004,2.3805436,-31.736276,-33.904067,2.3240696,-31.579997
109.55,38,-34.281788,2.8324801,-31.449307,-34.080857,2.7415166,-31.339340000000004
133.325,39,-34.511724,3.3766392,-31.135084999999997,-34.321573,3.2395213,-31.082051
157.1,40,-34.72665,4.0561096,-30.670540999999997,-34.544238,3.8682847999999996,-30.675953000000003
180.875,41,-34.930960999999996,4.8755863,-30.055374,-34.754095,4.6363237,-30.117771
204.65,42,-35.155978000000005,6.0766425,-29.079335999999998,-34.985079,5.779793799999999,-29.205284999999996
228.425,43,-35.479707,8.3785227,-27.101184000000003,-35.317476,8.020331200000001,-27.297145
252.2,44,-35.902802,11.731171,-24.171632000000002,-35.754115999999996,11.312503999999999,-24.441613
275.975,45,-36.416625,15.768597,-20.648028,-36.284064,15.454625,-20.829439
299.75,46,-37.006561,20.022106,-16.984455,-36.891791999999995,19.854736,-17.037056
323.525,47,-37.6558,24.125101,-13.530698999999998,-37.559733,23.966917000000002,-13.592815
347.3,48,-38.3491,27.897475,-10.451625,-38.271119,27.905365999999997,-10.365752
371.075,49,-39.071884000000004,31.247466999999997,-7.824416800000001,-39.008851,31.408908,-7.5999429
394.85,50,-39.797934999999995,34.052639,-5.745296499999999,-39.746855,34.221393,-5.525461900000001
418.625,51,-40.521172,36.402966,-4.118206,-40.480143,36.589194,-3.8909495
442.4,52,-41.237006,38.34324,-2.8937662,-41.205226,38.603120000000004,-2.6021062
466.175,53,-41.942049,39.919342,-2.0227074000000003,-41.918101,40.220924,-1.697177
489.95,54,-42.634084,41.190549,-1.4435348999999997,-42.6162,41.454902000000004,-1.1612973999999998
513.725,55,-43.31142,42.226177,-1.0852431999999999,-43.297536,42.405952,-0.89158426
537.5,56,-43.973169,43.096945,-0.87622494,-43.9624,43.19709,-0.7653097
561.275,57,-44.6188,43.860941,-0.75785956,-44.610510999999995,43.909679,-0.70083202
585.05,58,-45.247988,44.558976,-0.68901218,-45.241747,44.581782000000004,-0.65996487
608.825,59,-45.859996,45.215092999999996,-0.64490295,-45.855484000000004,45.226537,-0.62894795
632.6,60,-46.452607,45.84151,-0.61109638,-46.449509,45.847905,-0.60160381
656.375,61,-47.019049,46.442285,-0.57676375,-47.017115000000004,46.4461,-0.57101483
680.15,62,-47.544806,47.013439,-0.53136688,-47.543721000000005,47.015762,-0.5279591
703.925,63,-48.011995,47.541939,-0.47005582,-48.011433000000004,47.543253,-0.46818022
727.7,64,-48.417691999999995,48.010643,-0.40704907,-48.417497999999995,48.011297,-0.40620102
751.475,65,-48.783497,48.417244000000004,-0.3662527,-48.783412,48.417479,-0.36593294
775.25,66,-49.140443,48.783347,-0.35709593,-49.140381,48.783409999999996,-0.35697155
799.025,67,-49.511486,49.140389,-0.37109687,-49.511463,49.140381,-0.37108171
822.8,68,-49.903237,49.511465,-0.39177174,-49.90323,49.511463,-0.39176715
846.575,69,-50.308389,49.903226000000004,-0.40516311,-50.308359,49.90323,-0.40512881
870.35,70,-50.716871999999995,50.308383,-0.40848899,-50.716865999999996,50.308359,-0.40850747
894.125,71,-51.122229,50.716869,-0.4053598,-51.122225,50.716865999999996,-0.4053588
917.9,72,-51.521607,51.122227,-0.39938029,-51.521574,51.122225,-0.3993486
941.675,73,-51.913933,51.521605,-0.39232783,-51.913931,51.521574,-0.3923575
965.45,74,-52.299087,51.913932,-0.38515483,-52.299083,51.913931,-0.38515219
989.225,75,-52.677098,52.299085999999996,-0.37801146,-52.677078,52.299083,-0.37799509
1013.0,76,-52.864383999999994,52.677096999999996,-0.1872869,-52.864380000000004,52.677078,-0.18730153
