,,CRD,CRD,CRD,CLIRAD,CLIRAD,CLIRAD
,,flug,fldg,fnetg,flug,fldg,fnetg
pressure,level,,,,,,
0.0,1,-8.1852698,0.0,-8.1852698,,,
1e-08,1,,,,-8.1778083,9.420029800000002e-08,-8.1778082
0.0006244,2,-8.1852762,2.8115956e-06,-8.1852734,-8.1778107,1.9486272e-06,-8.177808800000001
0.0008759,3,-8.1852787,4.005772799999999e-06,-8.1852747,-8.1778117,2.7415816e-06,-8.1778089
0.0012286,4,-8.1852821,5.868253900000001e-06,-8.1852762,-8.1778129,3.9827559e-06,-8.1778089
0.0017234,5,-8.1852865,8.7737834e-06,-8.1852777,-8.1778144,5.9160936e-06,-8.177808500000001
0.0024174,6,-8.1852921,1.3298545999999999e-05,-8.1852788,-8.1778162,8.924981900000001e-06,-8.1778073
0.0033909,7,-8.1852993,2.0333264999999998e-05,-8.185279,-8.1778183,1.3605308e-05,-8.177804700000001
0.0047565,8,-8.1853084,3.1249268000000005e-05,-8.185277099999999,-8.177820599999999,2.0876693e-05,-8.1777997
0.006672,9,-8.185319400000001,4.8153587e-05,-8.1852712,-8.1778227,3.2158915e-05,-8.1777905
0.0093589,10,-8.1853323,7.4273392e-05,-8.185258000000001,-8.177824000000001,4.9644132e-05,-8.1777743
0.0131278,11,-8.1853465,0.00011454211000000001,-8.1852319,-8.1778232,7.671253e-05,-8.1777465
0.0184145,12,-8.1853605,0.00017646432,-8.1851841,-8.1778183,0.00011856041999999999,-8.1776997
0.0258302,13,-8.185371400000001,0.00027140237,-8.1851,-8.1778054,0.00018316283999999998,-8.1776223
0.0362323,14,-8.1853732,0.00041643598,-8.1849568,-8.1777784,0.00028269490000000004,-8.1774957
0.0508234,15,-8.1853578,0.00063470006,-8.1847231,-8.1777283,0.00043411553,-8.1772941
0.0712906,16,-8.185315600000001,0.00095543845,-8.1843602,-8.1776438,0.00065980724,-8.176984
0.1,17,-8.1852304,0.0014202256,-8.183810099999999,-8.177507,0.0009927455300000002,-8.176514200000002
0.140271,18,-8.1850719,0.0020895259,-8.1829824,-8.1772877,0.001482909,-8.1758048
0.19676,19,-8.1847907,0.0030463126,-8.1817444,-8.176938900000001,0.0022027406,-8.174736200000002
0.275997,20,-8.1843043,0.0044019129999999995,-8.179902400000001,-8.176386599999999,0.0032562529999999998,-8.1731303
0.3871,21,-8.183473,0.0063014862,-8.1771715,-8.175514699999999,0.004790345,-8.1707243
0.5431,22,-8.1820643,0.008916298100000001,-8.173148,-8.1741484,0.0070011676,-8.1671472
0.7617,23,-8.1800728,0.012077662,-8.1679951,-8.172285,0.0098808259,-8.162404200000001
1.0685,24,-8.1778602,0.015199248,-8.162661,-8.1701838,0.013123111000000002,-8.1570607
1.4988,25,-8.175639,0.017888988999999998,-8.15775,-8.1680067,0.016474456999999998,-8.1515323
2.1024,26,-8.173483099999999,0.01997004,-8.1535131,-8.1658276,0.019714298,-8.1461133
2.949,27,-8.1715002,0.021349088,-8.1501511,-8.163761099999999,0.022530234,-8.1412309
4.1366,28,-8.1698858,0.022070157000000003,-8.1478156,-8.1619902,0.024564718,-8.1374255
5.8025,29,-8.1687462,0.022521185,-8.146225,-8.160611,0.025697906,-8.134913099999999
8.1392,30,-8.167970500000001,0.023340451,-8.144630000000001,-8.1595372,0.026259974,-8.1332772
11.417,31,-8.1675986,0.024937063,-8.1426615,-8.1588293,0.026767641000000002,-8.1320617
16.0147,32,-8.1680384,0.027589759,-8.1404486,-8.158920599999998,0.027935849,-8.1309847
22.464,33,-8.17021,0.031791743,-8.1384183,-8.1607061,0.030832587,-8.1298735
31.5105,34,-8.1748671,0.039001634,-8.1358654,-8.1648989,0.037455517,-8.127443300000001
44.2001,35,-8.1822671,0.051410292999999996,-8.1308568,-8.1717563,0.050311009000000004,-8.1214453
62.0,36,-8.1935474,0.07084370200000001,-8.122703699999999,-8.182449400000001,0.071521315,-8.1109281
85.775,37,-8.2098689,0.098317486,-8.111551400000002,-8.1982379,0.10238838,-8.0958495
109.55,38,-8.2275686,0.12629431,-8.1012743,-8.2157491,0.13437117,-8.081377999999999
133.325,39,-8.247598599999998,0.15319447,-8.0944041,-8.2360849,0.16573942,-8.0703455
157.1,40,-8.271002099999999,0.17859132,-8.0924108,-8.2603356,0.19567338,-8.0646622
180.875,41,-8.298089599999999,0.20294943,-8.0951402,-8.2889155,0.2241609,-8.0647546
204.65,42,-8.3292571,0.22645355,-8.1028035,-8.3223679,0.25112545,-8.0712424
228.425,43,-8.365085,0.24921134,-8.115873599999999,-8.3614614,0.27652387,-8.0849375
252.2,44,-8.4064724,0.27130062,-8.1351717,-8.4071263,0.30036623,-8.106760000000001
275.975,45,-8.4549504,0.29280338,-8.162147099999999,-8.4606555,0.32274083,-8.1379147
299.75,46,-8.512747000000001,0.31430669,-8.1984403,-8.5232415,0.34420489,-8.1790366
323.525,47,-8.5788974,0.33953234,-8.239365,-8.593033199999999,0.36795922,-8.225074000000001
347.3,48,-8.6490088,0.37285518,-8.2761537,-8.6659496,0.39823549,-8.267714100000001
371.075,49,-8.7204465,0.41465393,-8.305792599999998,-8.739681800000001,0.43621473,-8.3034671
394.85,50,-8.7925159,0.46361378,-8.328902099999999,-8.8135338,0.48125917,-8.3322746
418.625,51,-8.864684500000001,0.51900085,-8.3456836,-8.8869925,0.53279778,-8.3541948
442.4,52,-8.936407,0.58038465,-8.3560223,-8.959530099999998,0.59043295,-8.3690972
466.175,53,-9.0071163,0.64746011,-8.3596562,-9.030582699999998,0.65377026,-8.3768124
489.95,54,-9.076225599999999,0.71996737,-8.3562582,-9.0995569,0.72247909,-8.377077799999999
513.725,55,-9.1431384,0.79764436,-8.345494,-9.1658948,0.79621117,-8.3696836
537.5,56,-9.207263900000001,0.8801968,-8.3270671,-9.229077,0.87467935,-8.354397599999999
561.275,57,-9.2680461,0.96727097,-8.3007752,-9.288589100000001,0.95751425,-8.3310749
585.05,58,-9.3249919,1.0584421999999998,-8.2665497,-9.343990199999999,1.044295,-8.2996952
608.825,59,-9.377702099999999,1.153211,-8.2244911,-9.3949427,1.134535,-8.2604077
632.6,60,-9.425894099999999,1.2510163,-8.1748777,-9.4412351,1.2276817,-8.2135535
656.375,61,-9.4693979,1.3512698,-8.1181281,-9.4827166,1.3232276,-8.159489
680.15,62,-9.5081287,1.4533955,-8.0547333,-9.519335400000001,1.4206481000000002,-8.0986873
703.925,63,-9.542044599999999,1.5568808,-7.9851638,-9.551007400000001,1.5194988999999999,-8.031508500000001
727.7,64,-9.571086,1.6613004,-7.9097856,-9.5776606,1.6193693,-7.9582913
751.475,65,-9.5951115,1.7663291,-7.828782400000001,-9.5991414,1.7199503,-7.879191099999999
775.25,66,-9.613843899999999,1.8717245999999998,-7.742119199999999,-9.6151924,1.8210175,-7.794174900000001
799.025,67,-9.6268352,1.9772783999999999,-7.6495568,-9.6254623,1.9223869999999998,-7.703075200000001
822.8,68,-9.6334881,2.0827093999999997,-7.5507786999999995,-9.629575599999999,2.0238708,-7.6057048
846.575,69,-9.6332599,2.1874314,-7.4458285,-9.6273282,2.1250598,-7.502268400000001
870.35,70,-9.6262344,2.2901582,-7.3360762,-9.6192215,2.2249112,-7.394310400000001
894.125,71,-9.6138485,2.3886895,-7.225159,-9.606877800000001,2.3215999,-7.285278
917.9,72,-9.5988141,2.4805845,-7.1182296,-9.5928285,2.4129772999999997,-7.1798512
941.675,73,-9.583950900000001,2.564423,-7.019527799999999,-9.579523,2.4975942000000004,-7.0819288
965.45,74,-9.571295,2.6402102000000003,-6.9310849,-9.568655900000001,2.5751543,-6.9935016
989.225,75,-9.5622151,2.7087661,-6.853449,-9.5612401,2.6461716,-6.915068400000001
1013.0,76,-9.558030300000002,2.7710839,-6.786946400000001,-9.55803,2.7114055,-6.8466245
