,,CRD,CRD,CRD,CLIRAD,CLIRAD,CLIRAD
,,flug,fldg,fnetg,flug,fldg,fnetg
pressure,level,,,,,,
0.0,1,-23.524379,0.0,-23.524379,,,
1e-08,1,,,,-23.302566,9.0444744e-08,-23.302566
0.0006244,2,-23.524382,9.7111831e-07,-23.524380999999998,-23.302567,6.483891e-07,-23.302566
0.0008759,3,-23.524384,1.3668548000000001e-06,-23.524382,-23.302567,8.7686686e-07,-23.302566
0.0012286,4,-23.524385000000002,1.935221e-06,-23.524384,-23.302568,1.2058957e-06,-23.302567
0.0017234,5,-23.524388000000002,2.75209e-06,-23.524385000000002,-23.302569000000002,1.6779975e-06,-23.302567
0.0024174,6,-23.524392000000002,3.9258574e-06,-23.524388000000002,-23.302570000000003,2.3556055e-06,-23.302568
0.0033909,7,-23.524397,5.611986799999999e-06,-23.524391,-23.302572,3.328573e-06,-23.302569000000002
0.0047565,8,-23.524404,8.029005099999999e-06,-23.524396,-23.302575,4.7257121e-06,-23.302570000000003
0.006672,9,-23.524414,1.1492427e-05,-23.524402,-23.302578,6.732520599999999e-06,-23.302571
0.0093589,10,-23.524428,1.6450103999999998e-05,-23.524410999999997,-23.302583,9.614452300000001e-06,-23.302573000000002
0.0131278,11,-23.524447,2.3537286e-05,-23.524423000000002,-23.302589,1.3753762999999999e-05,-23.302576000000002
0.0184145,12,-23.524473999999998,3.3651702e-05,-23.52444,-23.302599,1.9697805e-05,-23.302579
0.0258302,13,-23.524510999999997,4.8057338e-05,-23.524463,-23.302611,2.8231183999999998e-05,-23.302583
0.0362323,14,-23.524564,6.852259600000001e-05,-23.524495,-23.302629,4.0482930999999996e-05,-23.302588
0.0508234,15,-23.524637,9.7697848e-05,-23.52454,-23.302653,5.8183185e-05,-23.302595
0.0712906,16,-23.524738,0.0001425094,-23.524595,-23.302684,8.575464799999999e-05,-23.302598
0.1,17,-23.524867,0.00021858486,-23.524649,-23.30272,0.00013318934999999999,-23.302587
0.140271,18,-23.525025,0.00035082322999999995,-23.524675,-23.302753,0.00021707945,-23.302536
0.19676,19,-23.525206,0.00057808932,-23.524628,-23.302771,0.00036456453999999996,-23.302406
0.275997,20,-23.525388,0.00096387707,-23.524425,-23.302745,0.00062202379,-23.302123
0.3871,21,-23.52552,0.0016099822,-23.52391,-23.302623999999998,0.001067939,-23.301556
0.5431,22,-23.525484,0.0026786399,-23.522806,-23.302307,0.0018355257,-23.300472
0.7617,23,-23.52507,0.0043794357,-23.520691,-23.301637,0.0031179005,-23.298519
1.0685,24,-23.524226000000002,0.0066833121999999995,-23.517543,-23.30056,0.0049988996,-23.295561
1.4988,25,-23.523103,0.0092982325,-23.513804999999998,-23.299158,0.0074128566,-23.291745000000002
2.1024,26,-23.521779000000002,0.011991905,-23.509788,-23.297482000000002,0.01030811,-23.287174
2.949,27,-23.520422,0.014485037,-23.505937,-23.295656,0.013529473,-23.282127
4.1366,28,-23.519129,0.016696706999999998,-23.502432000000002,-23.293777,0.016921133999999997,-23.276856
5.8025,29,-23.517978,0.018715112,-23.499263,-23.291956,0.020296883,-23.271659
8.1392,30,-23.517094,0.020728731,-23.496365,-23.290395,0.023431856,-23.266963
11.417,31,-23.516695000000002,0.022980065,-23.493714,-23.289459,0.026129242999999996,-23.26333
16.0147,32,-23.517167999999998,0.02569978,-23.491467999999998,-23.289849,0.028355885,-23.261492999999998
22.464,33,-23.519211,0.029057051,-23.490154,-23.292842,0.03035573,-23.262486
31.5105,34,-23.524051999999998,0.033140455,-23.490910999999997,-23.300823,0.0326873,-23.268136
44.2001,35,-23.533878,0.037895162,-23.495983,-23.318147,0.035969399,-23.282176999999997
62.0,36,-23.554327,0.042119255,-23.512207999999998,-23.35373,0.039819726,-23.31391
85.775,37,-23.594975,0.044628840999999995,-23.550345999999998,-23.419614000000003,0.04321081400000001,-23.376403
109.55,38,-23.650334,0.046947885999999994,-23.603385999999997,-23.502376,0.046306167,-23.45607
133.325,39,-23.717835,0.05343116,-23.664403,-23.597272,0.052073215,-23.545199
157.1,40,-23.793937,0.066486776,-23.727451000000002,-23.700515,0.062688798,-23.637826
180.875,41,-23.877642,0.08533237099999999,-23.79231,-23.81063,0.078195061,-23.732435
204.65,42,-23.968071,0.10986555,-23.858204999999998,-23.926425,0.098737194,-23.827688000000002
228.425,43,-24.064420000000002,0.14015189,-23.924267999999998,-24.046889,0.12451269,-23.922376999999997
252.2,44,-24.165846,0.17626751,-23.989579,-24.170999,0.15571798,-24.015280999999998
275.975,45,-24.271638,0.21831445,-24.053324,-24.297871,0.19253021,-24.105341
299.75,46,-24.381137,0.26638869,-24.114749,-24.426714999999998,0.23512482,-24.191589999999998
323.525,47,-24.493721,0.32057025,-24.173151,-24.556762,0.28364545,-24.273117000000003
347.3,48,-24.608798,0.38092351,-24.227874,-24.687395000000002,0.33823433,-24.349161
371.075,49,-24.725801999999998,0.44749669,-24.278305,-24.817998,0.39900395,-24.418994
394.85,50,-24.844163,0.52031075,-24.323853,-24.94799,0.46603725,-24.481952
418.625,51,-24.963317,0.59936572,-24.363951,-25.07684,0.53941276,-24.537426999999997
442.4,52,-25.082739,0.68466847,-24.398070999999998,-25.204065,0.61919905,-24.584866
466.175,53,-25.201915,0.77621477,-24.4257,-25.329183,0.70543118,-24.623752
489.95,54,-25.320331,0.87398965,-24.446342,-25.451739,0.79812676,-24.653612
513.725,55,-25.437476,0.97796982,-24.459506,-25.571273,0.89730946,-24.673963
537.5,56,-25.552827,1.0881246999999998,-24.464702,-25.68737,1.0029526,-24.684417
561.275,57,-25.665854,1.2044146999999998,-24.46144,-25.799612,1.1150518999999999,-24.68456
585.05,58,-25.776011999999998,1.3267930000000001,-24.449219,-25.907601,1.2335819,-24.674019
608.825,59,-25.882731,1.4552026000000002,-24.427528,-26.010953,1.3585042999999999,-24.652449
632.6,60,-25.985409,1.5895347,-24.395874,-26.109301000000002,1.4897615,-24.619539000000003
656.375,61,-26.083472,1.7296273000000002,-24.353845,-26.202328,1.6272418,-24.575086
680.15,62,-26.176509,1.8751541,-24.301354999999997,-26.289852000000003,1.7707074,-24.519145
703.925,63,-26.264516999999998,2.0254112,-24.239105,-26.371975,1.9196526000000003,-24.452322
727.7,64,-26.348121000000003,2.1792309,-24.16889,-26.449195,2.0732098999999997,-24.375985999999997
751.475,65,-26.428285,2.3353843,-24.092901,-26.522154999999998,2.230423,-24.291732
775.25,66,-26.505629,2.4932279999999998,-24.012401,-26.591222,2.3906617000000003,-24.20056
799.025,67,-26.580021999999996,2.6529325,-23.92709,-26.656240000000004,2.5538514,-24.102388
822.8,68,-26.650652,2.8152242999999997,-23.835428,-26.716587,2.7203181,-23.996269
846.575,69,-26.716388000000002,2.9809228,-23.735464999999998,-26.771501,2.8905322,-23.880969
870.35,70,-26.776165000000002,3.1505645,-23.6256,-26.820328999999997,3.0648443,-23.755485
894.125,71,-26.829102000000002,3.3243574000000002,-23.504745,-26.862557000000002,3.2434321,-23.619125
917.9,72,-26.874427,3.5023101000000003,-23.372117000000003,-26.897809000000002,3.4263189,-23.47149
941.675,73,-26.911372999999998,3.6843483999999997,-23.227024,-26.925767999999998,3.6134583,-23.31231
965.45,74,-26.939102000000002,3.8703431000000004,-23.068758,-26.946108000000002,3.8048061,-23.141302
989.225,75,-26.956640999999998,4.060174,-22.896467,-26.958534000000004,4.0002783,-22.958256
1013.0,76,-26.962746000000003,4.2537366,-22.709009,-26.96275,4.1997873,-22.762963
