,,CRD,CRD,CRD,CLIRAD,CLIRAD,CLIRAD
,,flug,fldg,fnetg,flug,fldg,fnetg
pressure,level,,,,,,
0.0,1,-5.0986316,0.0,-5.0986316,,,
1e-08,1,,,,-4.873728900000001,2.1438178e-06,-4.8737267
0.0006244,2,-5.0986316,5.6183123e-09,-5.0986316,-4.873728900000001,2.145491e-06,-4.8737267
0.0008759,3,-5.0986316,7.9219618e-09,-5.0986316,-4.873728900000001,2.1463522999999997e-06,-4.8737267
0.0012286,4,-5.0986317,1.1277267e-08,-5.0986317,-4.873728900000001,2.1477348e-06,-4.8737267
0.0017234,5,-5.0986317,1.6176294e-08,-5.0986317,-4.873728900000001,2.1496188999999997e-06,-4.8737267
0.0024174,6,-5.0986318,2.3327008e-08,-5.0986318,-4.873728900000001,2.1521971000000004e-06,-4.8737267
0.0033909,7,-5.0986319,3.3764403e-08,-5.0986318,-4.873728900000001,2.1557811000000002e-06,-4.8737267
0.0047565,8,-5.098632,4.898635e-08,-5.0986319,-4.873728900000001,2.1608382999999997e-06,-4.8737267
0.006672,9,-5.0986322,7.117702700000001e-08,-5.0986321,-4.873728900000001,2.1680272999999998e-06,-4.8737267
0.0093589,10,-5.0986324,1.0351458000000001e-07,-5.098632299999999,-4.873728900000001,2.1783504e-06,-4.8737267
0.0131278,11,-5.0986327000000005,1.5058854e-07,-5.098632599999999,-4.873728900000001,2.1932149e-06,-4.8737267
0.0184145,12,-5.0986332,2.190148e-07,-5.098633,-4.873729,2.2147546e-06,-4.8737268
0.0258302,13,-5.098633900000001,3.1837519e-07,-5.098633599999999,-4.873729,2.2459972e-06,-4.8737268
0.0362323,14,-5.0986349,4.6238865e-07,-5.098634400000001,-4.873729099999999,2.2914547e-06,-4.8737268
0.0508234,15,-5.0986362000000005,6.7120328e-07,-5.0986355,-4.873729099999999,2.35786e-06,-4.8737268
0.0712906,16,-5.0986381,9.9893923e-07,-5.0986370999999995,-4.8737292000000005,2.4646606e-06,-4.8737268
0.1,17,-5.098640799999999,1.6267443e-06,-5.0986392,-4.8737293,2.6769601e-06,-4.8737267
0.140271,18,-5.0986445,2.978889e-06,-5.0986415,-4.8737294,3.1482187999999998e-06,-4.8737262
0.19676,19,-5.098649299999999,5.8599599999999995e-06,-5.0986434,-4.873729,4.1853013e-06,-4.8737249
0.275997,20,-5.098654799999999,1.1880574e-05,-5.098642900000001,-4.8737279000000004,6.4448240999999994e-06,-4.873721400000001
0.3871,21,-5.0986595999999995,2.4212112e-05,-5.098635400000001,-4.8737246,1.1316829e-05,-4.8737133
0.5431,22,-5.0986595999999995,4.898738e-05,-5.0986106,-4.8737166,2.1720542e-05,-4.8736949
0.7617,23,-5.098644599999999,9.7486032e-05,-5.098547099999999,-4.8736983,4.359263e-05,-4.8736546999999995
1.0685,24,-5.0985976,0.0001826684,-5.098414900000001,-4.8736614000000005,8.546473900000001e-05,-4.873576
1.4988,25,-5.0985211999999995,0.00029043177,-5.0982308,-4.873608,0.00014554775,-4.8734624
2.1024,26,-5.0984389000000006,0.00038647756,-5.0980524,-4.8735502,0.00021181442000000003,-4.873338400000001
2.949,27,-5.0983602999999995,0.00045789239,-5.097902400000001,-4.8734936,0.00027924909,-4.8732143
4.1366,28,-5.0982886,0.00050302067,-5.0977856,-4.8734402999999995,0.00034612366,-4.873094200000001
5.8025,29,-5.098225299999999,0.00052509677,-5.0977002,-4.873392,0.00041169262000000003,-4.8729803
8.1392,30,-5.0981695,0.00053083803,-5.0976387,-4.8733494,0.00047622977999999997,-4.8728731
11.417,31,-5.0981208,0.0005267877200000001,-5.097594,-4.8733139,0.0005398211599999999,-4.872774099999999
16.0147,32,-5.0980815,0.00051721086,-5.097564299999999,-4.873289,0.00060108014,-4.8726879
22.464,33,-5.098057,0.0005064647,-5.097550599999999,-4.8732798,0.00065828765,-4.872621499999999
31.5105,34,-5.09805,0.0005033718499999999,-5.0975467000000005,-4.8732904,0.0007129721799999999,-4.8725775
44.2001,35,-5.0980637,0.00051638164,-5.0975474,-4.8733278,0.0007679581799999999,-4.872559900000001
62.0,36,-5.0981144,0.00054680042,-5.0975676,-4.873409400000001,0.00082179354,-4.872587599999999
85.775,37,-5.0982286,0.0005945742700000001,-5.0976341,-4.8735578,0.00087018906,-4.8726876
109.55,38,-5.0983815,0.0006533053,-5.0977282,-4.8737385,0.00090940201,-4.8728291
133.325,39,-5.0985644,0.00072515277,-5.0978392999999995,-4.873945,0.00094919589,-4.8729959
157.1,40,-5.0987816,0.00080390588,-5.0979777,-4.874178,0.00099015568,-4.873187799999999
180.875,41,-5.0990438,0.0008999133999999999,-5.0981439,-4.8744439,0.001040519,-4.873403400000001
204.65,42,-5.099465299999999,0.0011114669999999999,-5.0983539,-4.8748612,0.001166358,-4.8736949
228.425,43,-5.1005085,0.001854841,-5.098653700000001,-4.8759238,0.0016963157000000001,-4.8742275
252.2,44,-5.1026784,0.0036808965,-5.0989975,-4.8781892,0.0031037856,-4.875085400000001
275.975,45,-5.106696599999999,0.007256926899999999,-5.0994397000000005,-4.8824551,0.0059459798,-4.876509099999999
299.75,46,-5.113538200000001,0.013375751000000002,-5.1001625,-4.889790799999999,0.011376664,-4.8784141
323.525,47,-5.1229066,0.021834416000000002,-5.1010722,-4.899878,0.019608826,-4.8802691
347.3,48,-5.1347517,0.032928133,-5.1018235999999995,-4.9127139,0.030683867000000004,-4.88203
371.075,49,-5.1493782,0.0473225,-5.1020557,-4.9286662,0.044790842000000004,-4.8838754
394.85,50,-5.1670697,0.065666953,-5.1014028,-4.9480558,0.062145027,-4.8859108
418.625,51,-5.1880765,0.088590503,-5.099486,-4.9712076,0.083280307,-4.8879273
442.4,52,-5.2126465,0.11669127,-5.0959553,-4.9984722,0.10922621,-4.889246
466.175,53,-5.2405109,0.14997958,-5.090531299999999,-5.029566,0.14075139,-4.888814599999999
489.95,54,-5.271589,0.1887365,-5.0828525,-5.0643582,0.1789553,-4.8854029
513.725,55,-5.3060073,0.23350968,-5.072497599999999,-5.1029911,0.22497397,-4.878017099999999
537.5,56,-5.3438629,0.28484533,-5.0590176,-5.145694000000001,0.27998547,-4.8657085
561.275,57,-5.3851678,0.34327432,-5.0418935,-5.192439599999999,0.34468438,-4.8477552
585.05,58,-5.4297916,0.40933474,-5.0204568,-5.2430969,0.41941278,-4.8236840999999995
608.825,59,-5.479522,0.48632561,-4.9931964,-5.2996973,0.50738856,-4.7923088
632.6,60,-5.5346677,0.57473414,-4.9599335,-5.3625921,0.60819806,-4.7543941
656.375,61,-5.595127,0.67442717,-4.9206998,-5.4317,0.72033654,-4.7113635
680.15,62,-5.6607285,0.785305,-4.8754235,-5.506901099999999,0.84207629,-4.6648248
703.925,63,-5.7311387,0.90715817,-4.8239805,-5.587855,0.9719857,-4.6158693
727.7,64,-5.8058858,1.0397753,-4.7661105,-5.6741031,1.1097921,-4.564311
751.475,65,-5.8842801,1.1828788000000001,-4.7014013,-5.764667500000001,1.2564587999999999,-4.5082087
775.25,66,-5.965276599999999,1.3360121999999999,-4.6292644,-5.858566099999999,1.4131905,-4.445375599999999
799.025,67,-6.047335299999999,1.4984343999999998,-4.5489009000000005,-5.9536746,1.5815624,-4.3721122
822.8,68,-6.1284622,1.6687869,-4.4596753,-6.0481028,1.7618691000000002,-4.2862337
846.575,69,-6.2068152,1.8447494,-4.3620658,-6.1392809,1.9532433999999999,-4.1860375
870.35,70,-6.2815925,2.0233708999999998,-4.2582216,-6.2262093,2.1527049,-4.0735043
894.125,71,-6.3531102,2.2022892000000005,-4.1508211,-6.309155400000001,2.3578059,-3.9513495
917.9,72,-6.4218071,2.3805973999999996,-4.0412097000000005,-6.3885491,2.5673383999999997,-3.8212106
941.675,73,-6.487375599999999,2.5584507999999997,-3.9289248,-6.4640635,2.7807247999999998,-3.6833387
965.45,74,-6.5483607,2.7362612,-3.8120996,-6.5343774,2.9971433999999997,-3.5372339999999998
989.225,75,-6.601230900000001,2.9143981,-3.6868328000000004,-6.596367999999999,3.2154596,-3.3809084
1013.0,76,-6.6254523,3.0929417999999997,-3.5325105000000003,-6.625452,3.4342324,-3.1912196
