,,CRD,CRD,CRD,CLIRAD,CLIRAD,CLIRAD
,,flug,fldg,fnetg,flug,fldg,fnetg
pressure,level,,,,,,
0.0,1,-25.978378,0.0,-25.978378,,,
1e-08,1,,,,-25.673231,1.2149015e-06,-25.673229
0.0006244,2,-25.978393,3.379861e-05,-25.978359,-25.673247,2.5086524e-05,-25.673222
0.0008759,3,-25.978399,4.7366541e-05,-25.978351999999997,-25.673253,3.478247e-05,-25.673219
0.0012286,4,-25.978407,6.6659162e-05,-25.978341,-25.673262,4.8667658e-05,-25.673214
0.0017234,5,-25.978419,9.4062501e-05,-25.978324,-25.673275,6.857059900000001e-05,-25.673206
0.0024174,6,-25.978434,0.00013282413,-25.978301000000002,-25.673293,9.7064576e-05,-25.673196
0.0033909,7,-25.978456,0.00018741110000000002,-25.978269,-25.673317,0.00013780455,-25.673179
0.0047565,8,-25.978486,0.00026382005,-25.978222,-25.673351,0.00019594508000000003,-25.673154999999998
0.006672,9,-25.978528,0.00036996606,-25.978157999999997,-25.673399,0.00027868779,-25.67312
0.0093589,10,-25.978586,0.00051602461,-25.978070000000002,-25.673465,0.00039601786,-25.673069
0.0131278,11,-25.978668,0.00071462178,-25.977954,-25.673559,0.00056156659,-25.672998
0.0184145,12,-25.978784,0.00098073222,-25.977803,-25.673692000000003,0.00079359345,-25.672898
0.0258302,13,-25.97895,0.0013310029,-25.977619,-25.673882,0.0011154265,-25.672766
0.0362323,14,-25.979192,0.0017823966,-25.977408999999998,-25.674157,0.0015555777999999999,-25.672601
0.0508234,15,-25.979557999999997,0.0023512363,-25.977207,-25.674563,0.0021467705,-25.672417000000003
0.0712906,16,-25.980117,0.003097183,-25.97702,-25.675164000000002,0.0029629819,-25.672202
0.1,17,-25.980928,0.004222875,-25.976705,-25.676015,0.004214527,-25.671801000000002
0.140271,18,-25.982023,0.0060193576,-25.976004,-25.677148000000003,0.0062096455,-25.670939
0.19676,19,-25.983457,0.0087290262,-25.974728,-25.678604999999997,0.0091752467,-25.66943
0.275997,20,-25.985265,0.012655572,-25.972609,-25.680404,0.01324103,-25.667163000000002
0.3871,21,-25.987398000000002,0.018258185,-25.96914,-25.682482,0.018536561,-25.663945000000002
0.5431,22,-25.989565,0.026343915,-25.963221,-25.68455,0.025660956000000002,-25.658889000000002
0.7617,23,-25.990486999999998,0.038385145,-25.952102,-25.685313,0.03634738,-25.648966
1.0685,24,-25.987178,0.05570186,-25.931476,-25.681718,0.052385630999999995,-25.629332
1.4988,25,-25.979129,0.075757466,-25.903371,-25.673319,0.071742695,-25.601576
2.1024,26,-25.969067000000003,0.09568113800000001,-25.873386,-25.662693,0.091622754,-25.571071
2.949,27,-25.957985,0.11642003,-25.841565,-25.650758,0.11247567,-25.538283
4.1366,28,-25.946178,0.13882712,-25.807351,-25.637655,0.13561848,-25.502036999999998
5.8025,29,-25.933953,0.16361624,-25.770336999999998,-25.623555,0.16230392,-25.461251
8.1392,30,-25.92139,0.19172359,-25.729667000000003,-25.608265,0.19334717,-25.414918
11.417,31,-25.908535999999998,0.22374456,-25.684792,-25.591749,0.22728778,-25.364461
16.0147,32,-25.896476,0.25930854,-25.637167,-25.575157,0.26137684,-25.313781
22.464,33,-25.888178,0.29819173,-25.589986,-25.562056,0.2932363,-25.268819
31.5105,34,-25.886032999999998,0.34372182,-25.542310999999998,-25.555441000000002,0.32551761,-25.229923
44.2001,35,-25.89126,0.40091538,-25.490345,-25.556706,0.36682875,-25.189877
62.0,36,-25.910227,0.47160191,-25.438625,-25.573341,0.42792007,-25.145421
85.775,37,-25.955719000000002,0.55591763,-25.399801,-25.6205,0.51459011,-25.10591
109.55,38,-26.018759,0.63954257,-25.379216,-25.689179,0.6068178,-25.082361
133.325,39,-26.095774,0.72758642,-25.368188,-25.77519,0.70435096,-25.070839000000003
157.1,40,-26.192262,0.81604176,-25.37622,-25.883179000000002,0.80098065,-25.082198
180.875,41,-26.317686,0.91095176,-25.406734,-26.022128,0.90255209,-25.119576000000002
204.65,42,-26.470034000000002,1.0342183,-25.435816,-26.188175,1.0303343,-25.157841
228.425,43,-26.63813,1.1999792,-25.438151,-26.371082,1.1999685,-25.171114000000003
252.2,44,-26.817737,1.4019853,-25.415751999999998,-26.566048,1.4060152,-25.160032
275.975,45,-27.007294,1.6356428,-25.371651,-26.771215,1.6436487000000002,-25.127567000000003
299.75,46,-27.205508000000002,1.8986611,-25.306847,-26.985077,1.9096929,-25.075384
323.525,47,-27.411147999999997,2.1892063,-25.221942000000002,-27.206134000000002,2.2013037,-25.004831
347.3,48,-27.623012,2.5055616,-25.11745,-27.432814,2.5160789,-24.916735
371.075,49,-27.839909000000002,2.8460171,-24.993892000000002,-27.664070000000002,2.8526626,-24.811408
394.85,50,-28.060637,3.2088025,-24.851835,-27.898784999999997,3.2098827,-24.688902
418.625,51,-28.283933,3.5918585,-24.692073999999998,-28.135646,3.5863123,-24.549333999999998
442.4,52,-28.508743,3.9929965,-24.515746,-28.373445,3.9805162000000003,-24.392929000000002
466.175,53,-28.734315000000002,4.4098847999999995,-24.32443,-28.611624,4.3912724,-24.220352
489.95,54,-28.960209999999996,4.8402697,-24.11994,-28.849807000000002,4.8173415,-24.032466
513.725,55,-29.186145,5.2822432,-23.903902,-29.087809999999998,5.257563200000001,-23.830247
537.5,56,-29.411820000000002,5.7343053,-23.677514000000002,-29.324951000000002,5.7104921,-23.614459
561.275,57,-29.636836,6.1952418,-23.441594,-29.560892,6.1756176,-23.385274
585.05,58,-29.860716999999998,6.663984700000001,-23.196732,-29.795192999999998,6.6522429,-23.14295
608.825,59,-30.082913,7.139552799999999,-22.943360000000002,-30.027315,7.139524799999999,-22.88779
632.6,60,-30.302811,7.6210271999999994,-22.681784,-30.256659000000003,7.636478599999999,-22.620179999999998
656.375,61,-30.519740000000002,8.107536099999999,-22.412204,-30.482371999999998,8.1418242,-22.340548000000002
680.15,62,-30.732909000000003,8.5982106,-22.134698999999998,-30.70358,8.6542965,-22.049284
703.925,63,-30.941405,9.092264199999999,-21.84914,-30.919371,9.172780699999999,-21.746589999999998
727.7,64,-31.144137,9.588987699999999,-21.555149,-31.128638,9.6961403,-21.432498000000002
751.475,65,-31.339738,10.087653999999999,-21.252084,-31.329897999999996,10.223249000000001,-21.106648999999997
775.25,66,-31.526456,10.587405,-20.939051,-31.521438,10.752724,-20.768715
799.025,67,-31.702089,11.087003999999999,-20.615085,-31.700979999999998,11.282994,-20.417986
822.8,68,-31.86433,11.584325999999999,-20.280005,-31.866283000000003,11.811335,-20.054947
846.575,69,-32.011769,12.075951,-19.935817999999998,-32.015901,12.334127,-19.681775
870.35,70,-32.144746999999995,12.557819,-19.586928,-32.150276,12.847052,-19.303224
894.125,71,-32.264788,13.026996,-19.237792000000002,-32.270944,13.346944,-18.924
917.9,72,-32.372955,13.482816,-18.89014,-32.378972999999995,13.832861,-18.546112
941.675,73,-32.468843,13.926222000000001,-18.542621,-32.473999,14.305501000000001,-18.168498
965.45,74,-32.550253000000005,14.358617,-18.191636,-32.553866,14.766069,-17.787797
989.225,75,-32.612181,14.781285,-17.830896,-32.61351,15.215724,-17.397786
1013.0,76,-32.637543,15.195276999999999,-17.442266,-32.63754,15.655441,-16.982098999999998
