,,CRD,CRD,CRD,CLIRAD,CLIRAD,CLIRAD
,,flug,fldg,fnetg,flug,fldg,fnetg
pressure,level,,,,,,
0.0,1,-14.281746,0.0,-14.281746,,,
1e-08,1,,,,-14.020925,0.00018811556,-14.020736999999999
0.0006244,2,-14.283004,0.006199673100000001,-14.276805,-14.022117999999999,0.00354271,-14.018575
0.0008759,3,-14.283608,0.0077029104000000004,-14.275904999999998,-14.02261,0.0047810336,-14.017829
0.0012286,4,-14.284348999999999,0.0096252089,-14.274723999999999,-14.023234,0.0065177485,-14.016716
0.0017234,5,-14.285252999999999,0.012014463999999999,-14.273239000000002,-14.024014999999999,0.0088884912,-14.015127
0.0024174,6,-14.286348,0.014932571,-14.271416,-14.024985000000001,0.012007263999999998,-14.012978
0.0033909,7,-14.287668,0.018469239,-14.269198000000001,-14.026176999999999,0.015930637,-14.010245999999999
0.0047565,8,-14.289247,0.022754201,-14.266492999999999,-14.027628,0.020632656,-14.006996
0.006672,9,-14.291125,0.027973026,-14.263152,-14.029379,0.026055138,-14.003323000000002
0.0093589,10,-14.293335999999998,0.034386665,-14.25895,-14.031464999999999,0.032264949,-13.9992
0.0131278,11,-14.295913,0.04234664,-14.253567000000002,-14.033918,0.039667614,-13.994251
0.0184145,12,-14.298867000000001,0.052309059000000005,-14.246557000000001,-14.03675,0.049083309000000006,-13.987667000000002
0.0258302,13,-14.302156,0.06484138,-14.237314999999999,-14.039914000000001,0.06156097,-13.978353
0.0362323,14,-14.305492999999998,0.08061513299999999,-14.224877,-14.043119,0.07812381,-13.964995000000002
0.0508234,15,-14.308570999999999,0.10002755,-14.208544,-14.046057000000001,0.099228488,-13.946829000000001
0.0712906,16,-14.311551999999999,0.1232569,-14.188295000000002,-14.048851999999998,0.1245547,-13.924297
0.1,17,-14.314544,0.15122669,-14.163317000000001,-14.051557,0.15379085,-13.897767000000002
0.140271,18,-14.317209,0.18569837,-14.131510999999998,-14.053783,0.18732944,-13.866454000000001
0.19676,19,-14.318833999999999,0.22916998,-14.089664,-14.054751999999999,0.22748143,-13.82727
0.275997,20,-14.317898999999999,0.28539683,-14.032502,-14.052907999999999,0.27980651,-13.773102
0.3871,21,-14.310626999999998,0.35975621,-13.950871,-14.04465,0.3527308,-13.691919
0.5431,22,-14.283760000000001,0.45885045,-13.824910000000001,-14.017347000000001,0.45536809,-13.561979000000001
0.7617,23,-14.229987,0.57382458,-13.656163000000001,-13.964757999999998,0.57912354,-13.385635
1.0685,24,-14.161226999999998,0.68958505,-13.471642000000001,-13.898060999999998,0.70236623,-13.195694
1.4988,25,-14.083460999999998,0.81132549,-13.272135999999998,-13.822467000000001,0.81604543,-13.006421000000001
2.1024,26,-13.99598,0.94754777,-13.048433000000001,-13.736336999999999,0.92935815,-12.806979
2.949,27,-13.899854000000001,1.1028269,-12.797027,-13.64042,1.0728993999999998,-12.567521000000001
4.1366,28,-13.80505,1.2831682,-12.521882000000002,-13.544045,1.2795617,-12.264484
5.8025,29,-13.721576999999998,1.509952,-12.211625,-13.457998000000002,1.5499566,-11.908041
8.1392,30,-13.641973000000002,1.8184915000000001,-11.823482,-13.374042999999999,1.874918,-11.499125
11.417,31,-13.561301,2.2280932,-11.333208,-13.287123000000001,2.2763538,-11.010769
16.0147,32,-13.494807000000002,2.7469333,-10.747873,-13.21445,2.8590835,-10.355367
22.464,33,-13.495966000000001,3.3914172999999996,-10.104549,-13.215254000000002,3.6711068999999994,-9.544147500000001
31.5105,34,-13.592452999999999,4.2369144,-9.355538300000001,-13.319442,4.6692352,-8.650207
44.2001,35,-13.736991,5.356625900000001,-8.3803653,-13.477464000000001,5.8127,-7.6647636
62.0,36,-13.907178,6.690255400000001,-7.216922900000001,-13.664187,7.2027500999999985,-6.4614365
85.775,37,-14.061919,8.068772200000002,-5.993146599999999,-13.830604000000001,8.8400689,-4.9905347
109.55,38,-14.134332999999998,9.098546,-5.035787200000001,-13.905678,10.058025,-3.8476537000000004
133.325,39,-14.162555,9.8246425,-4.3379125,-13.930976000000001,10.785689999999999,-3.145286
157.1,40,-14.195517,10.338389999999999,-3.8571267,-13.959506,11.168124,-2.7913822999999995
180.875,41,-14.237001000000001,10.737067999999999,-3.4999328999999997,-13.994248,11.393165,-2.6010832
204.65,42,-14.289710999999999,11.060198,-3.2295138,-14.036265,11.558126,-2.4781392
228.425,43,-14.358229000000001,11.32932,-3.0289097000000003,-14.087855,11.705966,-2.3818896
252.2,44,-14.452658999999999,11.557572,-2.8950868,-14.155688,11.849534,-2.3061548
275.975,45,-14.614721,11.754595,-2.8601257999999996,-14.28359,11.992448,-2.2911426
299.75,46,-15.004529000000002,11.954130000000001,-3.0503992,-14.656943,12.164571,-2.4923721000000003
323.525,47,-15.675120999999999,12.33676,-3.3383605000000003,-15.343457,12.559728,-2.7837287
347.3,48,-16.454488,13.015586,-3.4389019999999997,-16.151491,13.289001999999998,-2.8624891
371.075,49,-17.233677,13.852017000000002,-3.3816606,-16.958154,14.175848,-2.7823057999999996
394.85,50,-18.002472,14.725895999999999,-3.2765766,-17.751876,15.082622,-2.669254
418.625,51,-18.759248,15.610157000000001,-3.1490905,-18.531809,15.987917000000001,-2.5438918999999998
442.4,52,-19.502448,16.494076999999997,-3.0083709,-19.296625,16.887867,-2.4087582000000003
466.175,53,-20.230138,17.370831,-2.8593075,-20.044915,17.777331,-2.2675834999999998
489.95,54,-20.939795999999998,18.235114000000003,-2.704682,-20.773712,18.652258,-2.121454
513.725,55,-21.62833,19.082122000000002,-2.546208,-21.479976999999998,19.507244,-1.9727327000000001
537.5,56,-22.291957,19.907135,-2.3848216,-22.16059,20.338,-1.8225893
561.275,57,-22.926599,20.705069,-2.2215298999999997,-22.811408,21.138568,-1.6728401000000002
585.05,58,-23.528164999999998,21.470736,-2.0574291000000002,-23.428160000000002,21.90321,-1.52495
608.825,59,-24.093132999999998,22.199004000000002,-1.8941282,-24.006975,22.626429,-1.3805468
632.6,60,-24.619315,22.885327,-1.7339883000000003,-24.545996,23.303457,-1.2425389
656.375,61,-25.106225,23.526566,-1.5796593,-25.044352,23.932184,-1.1121678999999998
680.15,62,-25.555072,24.121438,-1.4336343999999999,-25.504161,24.511382,-0.99277874
703.925,63,-25.968455,24.670763,-1.2976921000000001,-25.927486,25.043062,-0.88442398
727.7,64,-26.349703,25.177149,-1.172554,-26.317887,25.529818,-0.78806923
751.475,65,-26.70175,25.644457,-1.0572934999999999,-26.678431,25.976213,-0.70221804
775.25,66,-27.025775,26.076771,-0.94900392,-27.010438,26.386884999999996,-0.62355347
799.025,67,-27.318991999999998,26.4771,-0.84189224,-27.311266999999997,26.765265000000003,-0.54600192
822.8,68,-27.570465000000002,26.845193,-0.7252726,-27.570728999999996,27.111393,-0.45933651
846.575,69,-27.756259000000004,27.173006,-0.58325363,-27.764142,27.417610999999997,-0.34653075
870.35,70,-27.844299,27.438242,-0.40605715,-27.858311999999998,27.660541,-0.19777127
894.125,71,-27.81907,27.606509000000003,-0.21256184,-27.836174,27.805203999999996,-0.03097016
917.9,72,-27.701636999999998,27.655353,-0.046284436,-27.718622999999997,27.829304999999998,0.1106821
941.675,73,-27.532658,27.598389,0.065731582,-27.54738,27.747914,0.20053337
965.45,74,-27.345146999999997,27.472741999999997,0.12759519,-27.356682,27.599521999999997,0.24283956
989.225,75,-27.159563000000002,27.311397999999997,0.15183536,-27.165447999999998,27.417852000000003,0.25240408
1013.0,76,-27.037219,27.133689,0.09646932300000001,-27.03722,27.22155,0.18432958
