,,CRD,CRD,CRD,CLIRAD,CLIRAD,CLIRAD
,,flug,fldg,fnetg,flug,fldg,fnetg
pressure,level,,,,,,
0.0,1,-16.254068,0.0,-16.254068,,,
1e-08,1,,,,-15.668505999999999,0.00018312458999999998,-15.668323000000001
0.0006244,2,-16.254436,0.0060561373,-16.248379,-15.668891,0.0034496996000000003,-15.665441
0.0008759,3,-16.254603,0.007445241500000001,-16.247157,-15.669047,0.0046185083,-15.664429
0.0012286,4,-16.254812,0.0090441274,-16.245767999999998,-15.66925,0.0061535514,-15.663097
0.0017234,5,-16.255074,0.010853745,-16.244221,-15.669514000000001,0.0081099641,-15.661404000000001
0.0024174,6,-16.255405,0.01288313,-16.242522,-15.669857,0.010505145,-15.659351999999998
0.0033909,7,-16.255824,0.015157106000000002,-16.240667000000002,-15.670304000000002,0.013295651,-15.657008
0.0047565,8,-16.256362,0.017721294,-16.23864,-15.67089,0.016371253,-15.654519
0.006672,9,-16.257057,0.02064666,-16.236411,-15.671663,0.019604728999999998,-15.652059
0.0093589,10,-16.25797,0.024033061,-16.233937,-15.672692999999999,0.022968502999999998,-15.649723999999999
0.0131278,11,-16.259189000000003,0.028011381000000002,-16.231178,-15.674079999999998,0.026665106,-15.647414999999999
0.0184145,12,-16.260851000000002,0.032744529,-16.228107,-15.675988,0.031132667000000003,-15.644854999999998
0.0258302,13,-16.263185,0.03842478,-16.22476,-15.67867,0.03687844,-15.641791
0.0362323,14,-16.266652,0.045274958,-16.221377,-15.6826,0.044333745,-15.638266
0.0508234,15,-16.272641,0.053683704000000006,-16.218957999999997,-15.689135,0.053925635,-15.635209
0.0712906,16,-16.282331,0.065747061,-16.216584,-15.699370000000002,0.067479405,-15.631891
0.1,17,-16.295514,0.084891854,-16.210622,-15.713075,0.087892767,-15.625182999999998
0.140271,18,-16.312196,0.11376467,-16.198431,-15.730220999999998,0.11712005,-15.613101
0.19676,19,-16.332902,0.15572561,-16.177177,-15.751219,0.15735698,-15.593862
0.275997,20,-16.357731,0.21651503,-16.141216,-15.775985,0.21368692,-15.562298
0.3871,21,-16.385269,0.30496338,-16.080306,-15.802832999999998,0.29683656,-15.505996
0.5431,22,-16.408114,0.4346242,-15.97349,-15.82414,0.42489037,-15.39925
0.7617,23,-16.39997,0.61998567,-15.779983999999999,-15.81502,0.61601974,-15.199
1.0685,24,-16.348487,0.84482534,-15.503661,-15.764851,0.8506915,-14.91416
1.4988,25,-16.263914,1.08911,-15.174804,-15.683082,1.0898694,-14.593212
2.1024,26,-16.142985999999997,1.3596405,-14.783346,-15.565385000000001,1.3333108,-14.232075
2.949,27,-15.993169,1.6538392,-14.339329999999999,-15.418323000000001,1.6120103000000001,-13.806313000000001
4.1366,28,-15.814573999999999,1.9868313999999998,-13.827743,-15.240445999999999,1.9801566000000002,-13.260289000000002
5.8025,29,-15.601602,2.3775762,-13.224026,-15.026344,2.4239834,-12.602360000000001
8.1392,30,-15.348182999999999,2.841504,-12.506679,-14.765635999999999,2.8927352,-11.872900999999999
11.417,31,-15.048074,3.3878369,-11.660237,-14.44999,3.4097755,-11.040214
16.0147,32,-14.69535,4.015049299999999,-10.6803,-14.071644000000001,4.1229814,-9.9486621
22.464,33,-14.284245,4.7065108,-9.5777337,-13.626469,5.0260637,-8.6004051
31.5105,34,-13.800127,5.4243938,-8.375733,-13.091339,5.8786138,-7.2127254
44.2001,35,-13.154004,6.092532,-7.0614719,-12.358578999999999,6.483096,-5.875483099999999
62.0,36,-12.436785,6.4449151,-5.99187,-11.518771000000001,6.8406877999999995,-4.6780833
85.775,37,-12.199266999999999,6.3057514,-5.8935151,-11.209897,6.898886099999999,-4.3110113
109.55,38,-12.862807,6.1549356,-6.7078714999999995,-11.923883,6.8286199000000005,-5.095263
133.325,39,-14.076385,6.7510758,-7.3253088,-13.249738,7.4341908,-5.8155469
157.1,40,-15.30367,8.0370147,-7.2666556,-14.571609,8.746135699999998,-5.8254737
180.875,41,-16.528801,9.4748675,-7.0539339000000005,-15.874576000000001,10.199888,-5.6746879
204.65,42,-17.745588,10.973001,-6.7725868,-17.155109,11.679674,-5.4754358
228.425,43,-18.950082000000002,12.492303999999999,-6.4577776,-18.415411,13.151135,-5.2642759
252.2,44,-20.139331,14.010898999999998,-6.1284322,-19.652129000000002,14.605995000000002,-5.0461333
275.975,45,-21.311691,15.515711999999999,-5.7959793,-20.866229,16.048028,-4.8182011
299.75,46,-22.466145,16.998414999999998,-5.4677294000000005,-22.058434,17.480279,-4.5781552
323.525,47,-23.602153,18.453483,-5.14867,-23.226609,18.900192999999998,-4.326416200000001
347.3,48,-24.71949,19.877374,-4.842115799999999,-24.373177,20.307651999999997,-4.0655252
371.075,49,-25.818176,21.267979999999998,-4.5501968,-25.498395000000002,21.697631,-3.8007642999999995
394.85,50,-26.898377000000004,22.624115,-4.2742621,-26.602362,23.064306,-3.5380557999999995
418.625,51,-27.960199,23.945435999999997,-4.014762999999999,-27.685628,24.403935,-3.2816937000000004
442.4,52,-29.003978999999998,25.232275,-3.771704,-28.749447999999997,25.713402,-3.0360459
466.175,53,-30.030016999999997,26.485374,-3.5446432999999997,-29.793998,26.988446000000003,-2.8055513
489.95,54,-31.038702,27.705671999999996,-3.3330302000000005,-30.820296000000003,28.226558,-2.5937375
513.725,55,-32.030398999999996,28.894370000000002,-3.1360287000000002,-31.827509000000003,29.427546000000003,-2.3999626
537.5,56,-33.005277,30.0528,-2.9524766,-32.817482,30.591920000000002,-2.2255613
561.275,57,-33.963411,31.182209000000004,-2.7812018,-33.789836,31.720751,-2.069085
585.05,58,-34.904443,32.283878,-2.6205642000000005,-34.744144,32.815072,-1.9290717
608.825,59,-35.826718,33.358866,-2.467852,-35.678841,33.876582,-1.802259
632.6,60,-36.725787,34.407163,-2.3186239,-36.589551,34.906432,-1.6831191000000003
656.375,61,-37.59033,35.426460999999996,-2.1638692,-37.46537,35.903783000000004,-1.5615868999999998
680.15,62,-38.398669,36.407595,-1.9910743000000002,-38.28445,36.860352,-1.4240981000000001
703.925,63,-39.126087,37.32936,-1.7967267,-39.020849,37.755109999999995,-1.2657385
727.7,64,-39.770227,38.163649,-1.6065783000000002,-39.671923,38.560034,-1.1118893
751.475,65,-40.36296,38.901593,-1.4613671999999998,-40.269517,39.267854,-1.0016631999999999
775.25,66,-40.949156,39.570221000000004,-1.3789356000000002,-40.859860999999995,39.906834,-0.95302725
799.025,67,-41.561229,40.21492,-1.3463085,-41.476973,40.523694,-0.95327918
822.8,68,-42.207640000000005,40.873241,-1.3343996,-42.129563,41.157089,-0.97247399
846.575,69,-42.876841,41.560124,-1.3167173,-42.805982,41.82135,-0.98463225
870.35,70,-43.553302,42.268652,-1.2846496,-43.491082,42.509029999999996,-0.98205186
894.125,71,-44.226577,42.985191,-1.2413853000000001,-44.173701,43.206974,-0.96672657
917.9,72,-44.891067,43.699740000000006,-1.1913261999999998,-44.847978999999995,43.904573,-0.94340668
941.675,73,-45.542829,44.40722,-1.1356091,-45.510414000000004,44.596438,-0.91397594
965.45,74,-46.176658,45.10533,-1.0713278999999998,-46.154701,45.280865000000006,-0.87383635
989.225,75,-46.777417,45.793446,-0.98397137,-46.768958000000005,45.956319,-0.81263837
1013.0,76,-47.067549,46.471346999999994,-0.59620193,-47.06755,46.622443,-0.44510675
