,,CRD,CRD,CRD,CLIRAD,CLIRAD,CLIRAD
,,flug,fldg,fnetg,flug,fldg,fnetg
pressure,level,,,,,,
0.0,1,-30.870337,0.0,-30.870337,,,
1e-08,1,,,,-30.990152000000002,1.8182315e-06,-30.990151
0.0006244,2,-30.870355,4.6458426e-05,-30.870308,-30.990169,3.6704036e-05,-30.990133
0.0008759,3,-30.870362,6.5142549e-05,-30.870296999999997,-30.990176,5.0878432000000005e-05,-30.990125
0.0012286,4,-30.870371999999996,9.1758145e-05,-30.870279999999998,-30.990185999999998,7.1175972e-05,-30.990115000000003
0.0017234,5,-30.870385,0.00012958318000000002,-30.870256,-30.990199,0.00010023565999999998,-30.990099
0.0024174,6,-30.870403999999997,0.00018315626,-30.870221,-30.990216999999998,0.00014178455,-30.990075
0.0033909,7,-30.87043,0.00025867917,-30.870171999999997,-30.990243,0.00020110495,-30.990040999999998
0.0047565,8,-30.870465999999997,0.00036455714999999994,-30.870102000000003,-30.990278000000004,0.00028561834,-30.989991999999997
0.006672,9,-30.870516,0.00051189772,-30.870005,-30.990327,0.00040566650999999997,-30.989921000000002
0.0093589,10,-30.870586,0.0007150713900000001,-30.869871000000003,-30.990396,0.00057548969,-30.98982
0.0131278,11,-30.870684000000004,0.00099205376,-30.869691999999997,-30.990492,0.00081443792,-30.989678
0.0184145,12,-30.870821999999997,0.0013644036,-30.869458,-30.990628000000005,0.0011481635,-30.98948
0.0258302,13,-30.87102,0.0018564701999999999,-30.869164,-30.990823,0.0016089874,-30.989214
0.0362323,14,-30.871309999999998,0.0024937914,-30.868816,-30.991104999999997,0.00223559,-30.988870000000002
0.0508234,15,-30.871747999999997,0.003306825,-30.868440999999997,-30.991521000000002,0.0030751382,-30.988446000000003
0.0712906,16,-30.872394,0.0044225817,-30.867971999999998,-30.992119,0.0042584091,-30.987859999999998
0.1,17,-30.873284,0.0061187414,-30.867165000000004,-30.992922999999998,0.0060467663,-30.986877000000003
0.140271,18,-30.874444,0.0086833413,-30.865761,-30.993949,0.0086926404,-30.985256
0.19676,19,-30.875906,0.01239022,-30.863515999999997,-30.995205,0.012341298,-30.982864000000003
0.275997,20,-30.877653999999996,0.017614444,-30.860039,-30.996655,0.017084093,-30.979571000000004
0.3871,21,-30.879534999999997,0.024959234,-30.854576,-30.998139000000002,0.023223487999999997,-30.974915999999997
0.5431,22,-30.880927000000003,0.035490679,-30.845437,-30.999095,0.031830775,-30.967264
0.7617,23,-30.879841,0.050532539,-30.829308,-30.997723999999998,0.044714144000000004,-30.95301
1.0685,24,-30.875457,0.068836043,-30.806620000000002,-30.993284999999997,0.061617237000000005,-30.931666999999997
1.4988,25,-30.868779999999997,0.088879957,-30.7799,-30.986577,0.081344038,-30.905233000000003
2.1024,26,-30.859879,0.11154004,-30.748339,-30.977559999999997,0.10401023,-30.87355
2.949,27,-30.849519,0.13686584,-30.712653000000003,-30.966796000000002,0.1294042,-30.837391999999998
4.1366,28,-30.837908000000002,0.16590017,-30.672008,-30.95423,0.15962948,-30.794601
5.8025,29,-30.824962,0.19963687,-30.625325,-30.939572,0.19706778,-30.742503999999997
8.1392,30,-30.810726000000003,0.23864843,-30.572078,-30.922511,0.24296798,-30.679543
11.417,31,-30.795474,0.28321099,-30.512263,-30.903151,0.29529755,-30.607853000000002
16.0147,32,-30.779838,0.33333559,-30.446503000000003,-30.882031,0.350665,-30.531366
22.464,33,-30.764971000000003,0.38890619,-30.376065000000004,-30.860539000000003,0.4058407,-30.454698999999998
31.5105,34,-30.752427,0.44991038,-30.302516999999998,-30.840601,0.45963855,-30.380962
44.2001,35,-30.742088,0.51582091,-30.226267,-30.821939,0.51517598,-30.306763
62.0,36,-30.746706,0.57474454,-30.171962,-30.819311,0.57170548,-30.247605
85.775,37,-30.798906,0.61597261,-30.182933000000002,-30.872434000000002,0.62436882,-30.248065999999998
109.55,38,-30.900056,0.65351854,-30.246537,-30.984289,0.67821884,-30.306070000000002
133.325,39,-31.038851,0.73702127,-30.30183,-31.137625,0.78190759,-30.355718
157.1,40,-31.196946,0.8862686,-30.310677000000002,-31.308711,0.95223438,-30.356477
180.875,41,-31.371584000000002,1.0821452,-30.289439,-31.493903000000003,1.1678223,-30.326079999999997
204.65,42,-31.56053,1.3194812,-30.241048,-31.691578000000003,1.4240065,-30.267571000000004
228.425,43,-31.761822,1.5948181000000001,-30.167004,-31.901138,1.7167531999999999,-30.184385
252.2,44,-31.973608000000002,1.9049873,-30.068621000000004,-32.120391999999995,2.0400875,-30.080305
275.975,45,-32.194332,2.2471502999999995,-29.947182,-32.34744,2.3889758,-29.958464000000003
299.75,46,-32.42262,2.6186194,-29.804,-32.580806,2.7600237,-29.820782
323.525,47,-32.657242,3.0168167,-29.640426,-32.819164,3.1505688999999997,-29.668595
347.3,48,-32.897095,3.4392779000000004,-29.457817,-33.061188,3.5586612,-29.502527
371.075,49,-33.141178000000004,3.8836568999999996,-29.257521,-33.306128,3.9836557999999997,-29.322471999999998
394.85,50,-33.388537,4.3476519,-29.040885,-33.553309000000006,4.4250512,-29.128258000000002
418.625,51,-33.638251000000004,4.8290627,-28.809188,-33.80187,4.8822481,-28.919621999999997
442.4,52,-33.889513,5.3259426,-28.563570000000002,-34.050944,5.3548165,-28.696127
466.175,53,-34.141545,5.836474,-28.305071,-34.299960999999996,5.8426043,-28.457357000000002
489.95,54,-34.393594,6.3589522,-28.034641999999998,-34.548358,6.345108799999999,-28.203249
513.725,55,-34.644904,6.8918059000000005,-27.753097999999998,-34.795476,6.8615686,-27.933908000000002
537.5,56,-34.894679,7.4335878,-27.461090999999996,-35.040368,7.390434,-27.649934000000002
561.275,57,-35.142066,7.9829503,-27.159115999999997,-35.28233,7.930751700000001,-27.351578999999997
585.05,58,-35.386083,8.5386569,-26.847426000000002,-35.520549,8.4812242,-27.039325
608.825,59,-35.625506,9.0995468,-26.525959999999998,-35.753977,9.040378599999999,-26.713597999999998
632.6,60,-35.858678000000005,9.6643306,-26.194348,-35.981184999999996,9.606552,-26.374633000000003
656.375,61,-36.0833,10.231485000000001,-25.851815,-36.199995,10.177569,-26.022426
680.15,62,-36.296562,10.798501,-25.498061,-36.407691,10.75034,-25.657351000000002
703.925,63,-36.49651,11.360726,-25.135783,-36.602371999999995,11.319912,-25.282459
727.7,64,-36.684638,11.911458,-24.77318,-36.7854,11.879452,-24.905948000000002
751.475,65,-36.866137,12.445428,-24.420709,-36.961523,12.423618,-24.537905
775.25,66,-37.046586,12.962594000000001,-24.083993,-37.135883,12.951963000000001,-24.18392
799.025,67,-37.228866,13.467715,-23.761152,-37.311098,13.46856,-23.842538
822.8,68,-37.412271999999994,13.967168,-23.445103,-37.486311,13.978887,-23.507424
846.575,69,-37.593615,14.465785999999998,-23.127829000000002,-37.658412,14.486973,-23.171438000000002
870.35,70,-37.769352000000005,14.965339000000002,-22.804013,-37.824058,14.994164000000001,-22.829894
894.125,71,-37.936518,15.465537,-22.470981,-37.980432,15.500132,-22.4803
917.9,72,-38.09243,15.965481,-22.126949,-38.125145,16.004104,-22.121041
941.675,73,-38.233956,16.464368,-21.769588,-38.255633,16.505542000000002,-21.75009
965.45,74,-38.356558,16.961548999999998,-21.395008999999998,-38.368138,17.004254,-21.363882999999998
989.225,75,-38.451964000000004,17.456612,-20.995353,-38.455424,17.500256,-20.955168
1013.0,76,-38.491734,17.949284,-20.54245,-38.49173,17.993363000000002,-20.498367000000002
