,,CRD,CRD,CRD,CLIRAD,CLIRAD,CLIRAD
,,flug,fldg,fnetg,flug,fldg,fnetg
pressure,level,,,,,,
0.0,1,-16.429054,0.0,-16.429054,,,
1e-08,1,,,,-16.325951,1.2831124e-06,-16.32595
0.0006244,2,-16.429085999999998,3.5690845e-05,-16.42905,-16.325979,2.6494755e-05,-16.325953
0.0008759,3,-16.429098,5.0679123e-05,-16.429047,-16.325991000000002,3.7201447e-05,-16.325953
0.0012286,4,-16.429116,7.3985072e-05,-16.429042000000003,-16.326006,5.3932549e-05,-16.325951999999997
0.0017234,5,-16.429139000000003,0.00011013368999999999,-16.429029,-16.326028,8.0041305e-05,-16.325948
0.0024174,6,-16.429171,0.00016587074,-16.429006,-16.326057000000002,0.00012064095,-16.325936
0.0033909,7,-16.429214,0.00025127276000000003,-16.428963,-16.326096,0.00018355476000000002,-16.325912
0.0047565,8,-16.429271,0.00038105447,-16.42889,-16.326148,0.00028119662,-16.325867000000002
0.006672,9,-16.429345,0.00057626006,-16.428769,-16.326216,0.00043240019999999995,-16.325784
0.0093589,10,-16.429439000000002,0.0008663110699999999,-16.428573,-16.326304999999998,0.00066490872,-16.32564
0.0131278,11,-16.429557,0.0012908848,-16.428267,-16.326416000000002,0.0010192321000000002,-16.325397
0.0184145,12,-16.429701,0.001901185,-16.4278,-16.326551000000002,0.0015530614999999998,-16.324998
0.0258302,13,-16.429868,0.0027597171999999997,-16.427108,-16.326709,0.0023453877,-16.324364000000003
0.0362323,14,-16.430047000000002,0.0039370606,-16.42611,-16.32688,0.0034969145,-16.323383
0.0508234,15,-16.430225,0.0054845595,-16.42474,-16.327052,0.00510339,-16.321948000000003
0.0712906,16,-16.430403,0.007409307800000001,-16.422994,-16.327223999999998,0.0072116490000000005,-16.320012
0.1,17,-16.430577,0.009716336400000001,-16.42086,-16.327389,0.0098135159,-16.317576000000003
0.140271,18,-16.430715,0.012436961000000002,-16.418278,-16.327517999999998,0.012834255,-16.314684
0.19676,19,-16.430760999999997,0.015623971,-16.415136999999998,-16.327552999999998,0.016130303000000002,-16.311422
0.275997,20,-16.430599,0.019377487,-16.411220999999998,-16.327384,0.019602105,-16.307782
0.3871,21,-16.429959,0.023888215,-16.40607,-16.326747,0.023399471,-16.303348
0.5431,22,-16.427986999999998,0.029452593,-16.398535,-16.324759,0.028034793,-16.296723999999998
0.7617,23,-16.424388,0.035297919,-16.38909,-16.321038,0.033120396,-16.287917999999998
1.0685,24,-16.420204000000002,0.040442318,-16.379762,-16.316627,0.037970269,-16.278655999999998
1.4988,25,-16.415927,0.045570158,-16.370356,-16.312035,0.043239716,-16.268796
2.1024,26,-16.411575,0.051449382,-16.360125,-16.307279,0.049384782,-16.257894
2.949,27,-16.407252,0.058364059,-16.348888,-16.302464,0.056476837,-16.245988
4.1366,28,-16.403412,0.066452456,-16.33696,-16.297997,0.064898919,-16.233098000000002
5.8025,29,-16.400425,0.076487204,-16.323938000000002,-16.294182,0.075841045,-16.218341
8.1392,30,-16.398018,0.089982762,-16.308035,-16.290671,0.091373489,-16.199297
11.417,31,-16.396183999999998,0.10788341,-16.288301,-16.287454,0.1122606,-16.175193
16.0147,32,-16.395861,0.13069222,-16.265169,-16.285592,0.13776056,-16.147832
22.464,33,-16.399567,0.15959053,-16.239976000000002,-16.287945,0.16681707,-16.121128
31.5105,34,-16.409110000000002,0.1997104,-16.2094,-16.296507000000002,0.20257114,-16.093936
44.2001,35,-16.424041,0.25892339,-16.165118,-16.310278,0.25153922,-16.058738
62.0,36,-16.445711,0.34290638,-16.102804000000003,-16.330697,0.32384332,-16.006853
85.775,37,-16.475025,0.45461096,-16.020414000000002,-16.359068,0.43258924,-15.926479
109.55,38,-16.504632,0.56549225,-15.939139,-16.388506,0.54999441,-15.838512
133.325,39,-16.536534,0.67185602,-15.864678,-16.420993,0.66648085,-15.754512
157.1,40,-16.573214,0.77324804,-15.799966,-16.458879,0.77783898,-15.68104
180.875,41,-16.615181,0.87158677,-15.743594,-16.502716,0.88435649,-15.618360000000001
204.65,42,-16.663035,0.96735435,-15.69568,-16.553309,0.98615172,-15.567157
228.425,43,-16.717653,1.060761,-15.656892000000001,-16.612253,1.0840914,-15.528162
252.2,44,-16.780442999999998,1.1519325,-15.628510999999998,-16.681293,1.1784149,-15.502877999999999
275.975,45,-16.854411,1.241023,-15.613388,-16.763537,1.2693928,-15.494144
299.75,46,-16.946469,1.3299457000000001,-15.616523999999998,-16.865317,1.3590521999999998,-15.506264999999999
323.525,47,-17.057272,1.4313225,-15.62595,-16.986147,1.4598155000000002,-15.526330999999999
347.3,48,-17.177751,1.5588844,-15.618867000000002,-17.116112,1.5856278999999998,-15.530484
371.075,49,-17.30195,1.712011,-15.589939000000001,-17.249236,1.7368017,-15.512433999999999
394.85,50,-17.428519,1.8856433000000001,-15.542876000000001,-17.384269,1.9088328,-15.475435999999998
418.625,51,-17.55653,2.0774685,-15.479061999999999,-17.520187,2.0990456,-15.421141
442.4,52,-17.685049,2.28593,-15.399119,-17.655839999999998,2.3054639,-15.350376
466.175,53,-17.813095,2.5096648,-15.303429999999999,-17.790367,2.526807,-15.26356
489.95,54,-17.939629999999998,2.7473447999999996,-15.192285,-17.922763,2.7619732999999997,-15.160789999999999
513.725,55,-18.063572,2.997584,-15.065988,-18.052007,3.0097973,-15.04221
537.5,56,-18.183806,3.2588856,-14.924921,-18.176679,3.2684931,-14.908185999999999
561.275,57,-18.299238,3.5295859,-14.769651999999999,-18.295766,3.5370078,-14.758757999999998
585.05,58,-18.408846,3.8078491999999997,-14.600997,-18.408304,3.8140303,-14.594273999999999
608.825,59,-18.511753,4.0916828999999995,-14.42007,-18.513476,4.097987799999999,-14.415488
632.6,60,-18.607297,4.378998200000001,-14.228298,-18.610732000000002,4.387096700000001,-14.223635
656.375,61,-18.695048999999997,4.6677267,-14.027323,-18.699598,4.6792904,-14.020307999999998
680.15,62,-18.774774,4.955920900000001,-13.818853,-18.779927,4.9726550000000005,-13.807272
703.925,63,-18.846370999999998,5.241964599999999,-13.604405999999999,-18.851651,5.2657766,-13.585873999999999
727.7,64,-18.909745,5.5245835,-13.385162,-18.914769,5.5573714999999995,-13.357397
751.475,65,-18.964643,5.8028567,-13.161786,-18.969097,5.8464513,-13.122646
775.25,66,-19.010481,6.0761377,-12.934344,-19.014110000000002,6.1322331,-12.881877000000001
799.025,67,-19.04616,6.3438915,-12.702269,-19.048745999999998,6.4139946,-12.634752
822.8,68,-19.069874,6.6053743,-12.464499,-19.071237,6.6906349,-12.380602
846.575,69,-19.079245,6.858949099999999,-12.220296000000001,-19.079271,6.960328,-12.118943
870.35,70,-19.072596,7.100982000000001,-11.971614,-19.071437,7.219268700000001,-11.852169
894.125,71,-19.051385,7.325475599999999,-11.725909,-19.049457,7.4613353,-11.588122
917.9,72,-19.021036,7.5264716,-11.494564,-19.018839,7.680333500000001,-11.338505
941.675,73,-18.988187,7.701734,-11.286453,-18.986142,7.8736216,-11.11252
965.45,74,-18.957947,7.853123200000001,-11.104823,-18.956415,8.042628,-10.913787
989.225,75,-18.933977,7.984153699999999,-10.949823,-18.933253,8.190586900000001,-10.742666
1013.0,76,-18.921523,8.0981562,-10.823366,-18.92152,8.3205861,-10.600934
