,,CRD,CRD,CRD,CLIRAD,CLIRAD,CLIRAD
,,flug,fldg,fnetg,flug,fldg,fnetg
pressure,level,,,,,,
0.0,1,-6.8873297,0.0,-6.8873297,,,
1e-08,1,,,,-6.854793400000001,9.420960800000002e-08,-6.854793300000001
0.0006244,2,-6.887338499999999,3.912795799999999e-06,-6.887334599999999,-6.8547963,2.5796429e-06,-6.8547937
0.0008759,3,-6.887341999999999,5.5755219999999996e-06,-6.887336400000001,-6.8547974,3.6410787999999995e-06,-6.8547937999999995
0.0012286,4,-6.8873465,8.171205499999999e-06,-6.887338400000001,-6.8547989000000005,5.3026316e-06,-6.8547936
0.0017234,5,-6.8873526,1.2224842000000002e-05,-6.887340299999999,-6.854800599999999,7.894361e-06,-6.8547927
0.0024174,6,-6.8873603,1.8544932e-05,-6.887341800000001,-6.8548026,1.1932834e-05,-6.854790700000001
0.0033909,7,-6.8873703,2.8383808e-05,-6.887341900000001,-6.8548048999999995,1.8221519e-05,-6.8547867
0.0047565,8,-6.887382700000001,4.3668333e-05,-6.887339,-6.8548070999999995,2.8003398e-05,-6.8547791
0.006672,9,-6.8873977,6.736526399999999e-05,-6.887330400000001,-6.854808800000001,4.3200136000000005e-05,-6.8547656
0.0093589,10,-6.887415400000001,0.0001040308,-6.8873112999999995,-6.854808900000001,6.678133300000001e-05,-6.8547421
0.0131278,11,-6.887434700000001,0.00016063935,-6.887274000000001,-6.8548056,0.00010333201,-6.8547023000000005
0.0184145,12,-6.887453599999999,0.0002478235,-6.8872057,-6.8547958,0.00015991065,-6.8546359
0.0258302,13,-6.8874675000000005,0.00038172522000000006,-6.8870857999999995,-6.8547739000000005,0.00024736889,-6.8545264999999995
0.0362323,14,-6.8874682,0.00058666128,-6.8868815,-6.854730900000001,0.00038230602999999994,-6.854348599999999
0.0508234,15,-6.8874437,0.00089564551,-6.8865481,-6.854653999999999,0.0005878822799999999,-6.854066099999999
0.0712906,16,-6.8873802,0.0013504677,-6.886029700000001,-6.8545267999999995,0.00089471134,-6.8536321
0.1,17,-6.8872538,0.002010683,-6.885243099999999,-6.854323399999999,0.0013480076999999998,-6.8529754
0.140271,18,-6.887021000000001,0.0029631790000000002,-6.884057799999999,-6.854000800000001,0.0020165359,-6.8519842
0.19676,19,-6.8866098,0.0043276183,-6.8822822,-6.8534921,0.0030004148999999997,-6.8504917
0.275997,20,-6.885901,0.0062653704,-6.879635700000001,-6.8526932,0.0044442365000000005,-6.848249000000001
0.3871,21,-6.8846929,0.008988115999999999,-6.875704799999999,-6.851441800000001,0.0065538204,-6.8448879
0.5431,22,-6.8826508,0.012747865,-6.869902900000001,-6.849495299999999,0.009607745,-6.839887599999999
0.7617,23,-6.8797695999999995,0.017306754,-6.862462799999999,-6.846851400000001,0.013609642,-6.8332417
1.0685,24,-6.8765734,0.021827762999999997,-6.854745599999999,-6.843871400000001,0.018160043,-6.8257113
1.4988,25,-6.8733661999999995,0.0257613,-6.8476049,-6.8407822,0.02294752,-6.817834700000001
2.1024,26,-6.8702508,0.028868991,-6.8413818,-6.8376925,0.027721709,-6.809970799999999
2.949,27,-6.8673789,0.031031035,-6.8363478,-6.8347717,0.032115975,-6.8026557
4.1366,28,-6.8650265,0.03232145,-6.832705000000001,-6.832285700000001,0.03569509,-6.7965906
5.8025,29,-6.863343400000001,0.033304823,-6.8300386,-6.8303864,0.038313243999999996,-6.7920731
8.1392,30,-6.8621734,0.03491818,-6.8272552,-6.828999900000001,0.040371949,-6.788627900000001
11.417,31,-6.8615848,0.03778818,-6.8237966,-6.8282892,0.042460435,-6.7858288
16.0147,32,-6.8621871,0.042345075999999995,-6.8198419999999995,-6.8289723,0.045397094000000006,-6.7835752000000005
22.464,33,-6.865325200000001,0.049317349,-6.8160077999999995,-6.8324195,0.050533945999999996,-6.7818856
31.5105,34,-6.8720546,0.060891827,-6.811162700000001,-6.839782400000001,0.060702407,-6.77908
44.2001,35,-6.8826307,0.08044585900000001,-6.8021849,-6.851706599999999,0.079771488,-6.771935099999999
62.0,36,-6.8984935,0.11088866,-6.7876049,-6.8703132,0.11127752,-6.7590356
85.775,37,-6.921013,0.15384603,-6.767167,-6.897914900000001,0.15736224,-6.7405527
109.55,38,-6.9450435,0.19756363,-6.7474798,-6.9286413,0.20520425,-6.723437
133.325,39,-6.972104600000001,0.23967921,-6.7324254,-6.9639781,0.25226056,-6.711717599999999
157.1,40,-7.004073299999999,0.28016103,-6.723912299999999,-7.0055584,0.29804609,-6.707512299999999
180.875,41,-7.0415524000000005,0.31961821,-6.721934200000001,-7.053876400000001,0.3425008,-6.711375599999999
204.65,42,-7.085324099999999,0.35831948,-6.7270046,-7.109629300000001,0.3855549,-6.724074400000001
228.425,43,-7.136296000000001,0.39614142,-6.7401546,-7.1736516,0.42696197,-6.746689599999999
252.2,44,-7.1959405,0.4331317,-6.7628088,-7.247086500000001,0.46675442,-6.7803321
275.975,45,-7.2667456999999995,0.46945498,-6.7972907000000005,-7.3316525,0.50515183,-6.826500599999999
299.75,46,-7.3521772,0.50607151,-6.8461057,-7.4290449999999995,0.543061,-6.885984
323.525,47,-7.4507652,0.54908689,-6.9016782999999995,-7.5366506,0.58557804,-6.9510726
347.3,48,-7.5557451,0.606231,-6.9495141,-7.6484062,0.63978204,-7.0086242
371.075,49,-7.6628682,0.67913385,-6.9837343999999995,-7.7606772,0.70818427,-7.052492999999999
394.85,50,-7.773805499999999,0.77054396,-7.003261500000001,-7.875043300000001,0.79405631,-7.0809869999999995
418.625,51,-7.889953599999999,0.88382905,-7.006124499999999,-7.992843499999999,0.90076933,-7.0920742
442.4,52,-8.0114069,1.0203308,-6.9910761,-8.114177900000001,1.0299242,-7.0842537
466.175,53,-8.1379841,1.1808518999999997,-6.9571322,-8.2389768,1.1818559,-7.0571209
489.95,54,-8.269122200000002,1.3655191999999998,-6.9036029999999995,-8.3667891,1.3562518,-7.010537299999999
513.725,55,-8.4038911,1.5738689,-6.830022200000001,-8.496896699999999,1.5533563999999997,-6.943540400000001
537.5,56,-8.5409953,1.804817,-6.7361783,-8.6282338,1.7735343999999997,-6.8546994
561.275,57,-8.678811900000001,2.0565436000000004,-6.622268400000001,-8.7593825,2.0154812,-6.743901299999999
585.05,58,-8.8155365,2.3265937,-6.4889428,-8.888723800000001,2.2760375,-6.6126863
608.825,59,-8.9492885,2.6118113999999997,-6.3374772,-9.0145496,2.5512502999999995,-6.463299299999999
632.6,60,-9.0783112,2.9085661,-6.169745099999999,-9.1353454,2.8374937,-6.2978517
656.375,61,-9.2010788,3.212973,-5.9881058,-9.2496474,3.1320289,-6.1176185
680.15,62,-9.316337400000002,3.5211885,-5.7951489,-9.356434599999998,3.4322763,-5.9241582
703.925,63,-9.423064199999999,3.8297209999999997,-5.5933432,-9.454543,3.7358321000000005,-5.7187109000000005
727.7,64,-9.520306800000002,4.1355911,-5.3847157,-9.5430398,4.0398457,-5.5031942
751.475,65,-9.6069487,4.4364669999999995,-5.1704817,-9.620816,4.3415981,-5.279217900000001
775.25,66,-9.6814364,4.730644,-4.950792400000001,-9.686395300000001,4.6386807999999995,-5.0477145
799.025,67,-9.7414097,5.0167219,-4.7246878,-9.737684800000002,4.9289481,-4.8087367
822.8,68,-9.7833352,5.2931665,-4.490168700000001,-9.7718386,5.2104455000000005,-4.5613931
846.575,69,-9.8026073,5.557220200000001,-4.2453871,-9.785042800000001,5.4804747,-4.3045681
870.35,70,-9.795599800000002,5.8030292999999995,-3.9925705000000002,-9.774823800000002,5.7334708,-4.041353
894.125,71,-9.7639868,6.0215676,-3.7424192,-9.743355099999999,5.9613679,-3.7819872
917.9,72,-9.7165845,6.2038269999999995,-3.5127574999999998,-9.6988991,6.155907900000001,-3.5429912000000003
941.675,73,-9.664681100000001,6.347549099999999,-3.317132,-9.6515939,6.3146385,-3.3369553
965.45,74,-9.616660699999999,6.4580379,-3.1586228,-9.6088144,6.44192,-3.1668944
989.225,75,-9.578260499999999,6.5422248,-3.0360357000000002,-9.5752609,6.543806299999999,-3.0314546
1013.0,76,-9.558030300000002,6.6059424,-2.9520879,-9.55803,6.6252968999999995,-2.9327331
