,,CRD,CRD,CRD,CLIRAD,CLIRAD,CLIRAD
,,flug,fldg,fnetg,flug,fldg,fnetg
pressure,level,,,,,,
0.0,1,-61.259575,0.0,-61.259575,,,
1e-08,1,,,,-61.29616600000001,1.2025758e-07,-61.296165
0.0006244,2,-61.259575,3.1652743e-08,-61.259575,-61.29616600000001,1.4493489000000002e-07,-61.296165
0.0008759,3,-61.259575,4.462508799999999e-08,-61.259575,-61.29616600000001,1.5586573999999998e-07,-61.296165
0.0012286,4,-61.259575,6.3506683e-08,-61.259575,-61.29616600000001,1.7231885e-07,-61.29616600000001
0.0017234,5,-61.259575,9.1058092e-08,-61.259575,-61.29616600000001,1.9560423999999998e-07,-61.29616600000001
0.0024174,6,-61.259575,1.3124441e-07,-61.259575,-61.29616600000001,2.2865888000000002e-07,-61.29616600000001
0.0033909,7,-61.259575,1.8985879e-07,-61.259575,-61.29616600000001,2.7589671e-07,-61.29616600000001
0.0047565,8,-61.259575,2.7534334e-07,-61.259575,-61.29616600000001,3.4374365999999997e-07,-61.29616600000001
0.006672,9,-61.259576,3.9999231000000004e-07,-61.259575,-61.29616600000001,4.4147804e-07,-61.29616600000001
0.0093589,10,-61.259576,5.8173219e-07,-61.259575,-61.296167000000004,5.8262474e-07,-61.29616600000001
0.0131278,11,-61.259577,8.466751e-07,-61.259576,-61.296167000000004,7.8721763e-07,-61.296167000000004
0.0184145,12,-61.259577,1.2328688000000002e-06,-61.259576,-61.29616800000001,1.085464e-06,-61.296167000000004
0.0258302,13,-61.259579,1.7957353e-06,-61.259577,-61.29616899999999,1.5195793000000001e-06,-61.29616800000001
0.0362323,14,-61.25958000000001,2.6160228999999997e-06,-61.259578000000005,-61.296170999999994,2.1509693999999998e-06,-61.29616899999999
0.0508234,15,-61.259583,3.8142907e-06,-61.259579,-61.296172999999996,3.069772e-06,-61.29617
0.0712906,16,-61.259586999999996,5.706646599999999e-06,-61.259581000000004,-61.296177,4.516277e-06,-61.296172
0.1,17,-61.259593,9.3309293e-06,-61.259583,-61.296181999999995,7.269297e-06,-61.296175
0.140271,18,-61.259602,1.7120848000000002e-05,-61.259584999999994,-61.296192000000005,1.3103081999999999e-05,-61.296178000000005
0.19676,19,-61.259617000000006,3.3755405e-05,-61.259583,-61.296206000000005,2.5341588000000002e-05,-61.296181000000004
0.275997,20,-61.259639,6.8796928e-05,-61.25957,-61.296228,5.0648808e-05,-61.296177
0.3871,21,-61.25966700000001,0.00014148044,-61.259526,-61.296257999999995,0.00010223502,-61.296156
0.5431,22,-61.259696,0.00029001802000000004,-61.259406000000006,-61.296296999999996,0.0002071522,-61.29609
0.7617,23,-61.25970600000001,0.00058736382,-61.25911899999999,-61.29634,0.00042538445999999996,-61.295914
1.0685,24,-61.259661,0.0011295956,-61.258531000000005,-61.29636899999999,0.0008335458500000001,-61.295535
1.4988,25,-61.259583,0.0018815885,-61.257702,-61.29640500000001,0.0014127241,-61.29499200000001
2.1024,26,-61.25956,0.0026915934999999997,-61.256868999999995,-61.29650899999999,0.0020653652,-61.29444399999999
2.949,27,-61.259641,0.0034972916,-61.25614300000001,-61.296718000000006,0.0027512157000000002,-61.293966000000005
4.1366,28,-61.259859,0.0042805433,-61.255578,-61.297059,0.0034547823999999997,-61.293604
5.8025,29,-61.260249,0.0050397815999999995,-61.255208999999994,-61.297564,0.004172633,-61.293391
8.1392,30,-61.260852,0.0057902016,-61.255061,-61.298269999999995,0.0049109272,-61.293358999999995
11.417,31,-61.26172,0.006551461800000001,-61.255168000000005,-61.299227,0.00567789,-61.293549
16.0147,32,-61.262919999999994,0.0073329332,-61.255587,-61.300498,0.006470550500000001,-61.294028000000004
22.464,33,-61.264531000000005,0.0081471462,-61.256384,-61.302158999999996,0.007290200300000001,-61.29486899999999
31.5105,34,-61.266689,0.009053029399999999,-61.257636,-61.304345999999995,0.008181627,-61.296164000000005
44.2001,35,-61.269615,0.010139198,-61.259475,-61.307285,0.0092224921,-61.298062
62.0,36,-61.273588000000004,0.011461578,-61.262127,-61.311265,0.010472499,-61.300792
85.775,37,-61.278742,0.013014611,-61.265727000000005,-61.316432999999996,0.011942565,-61.304491000000006
109.55,38,-61.283905000000004,0.014496341999999999,-61.269408,-61.321606,0.013349928,-61.30825600000001
133.325,39,-61.289207,0.016004435,-61.273203,-61.326842000000006,0.014769259,-61.312073
157.1,40,-61.29464,0.017535818999999998,-61.277104,-61.332013,0.016169566,-61.31584399999999
180.875,41,-61.300309999999996,0.01916111,-61.281149,-61.33732,0.01764014,-61.319679
204.65,42,-61.306621,0.021164501000000002,-61.285456,-61.34307,0.019402203,-61.32366700000001
228.425,43,-61.31395,0.023906514,-61.290043000000004,-61.34986899999999,0.021843799,-61.328025
252.2,44,-61.322352,0.027593044,-61.294759,-61.357743000000006,0.025150601,-61.332593
275.975,45,-61.331793000000005,0.032375691,-61.299417000000005,-61.366604,0.029448781,-61.337155
299.75,46,-61.34222,0.038401447000000005,-61.30381800000001,-61.376374,0.0348667,-61.34150699999999
323.525,47,-61.353572,0.045815061,-61.307756999999995,-61.38701700000001,0.041560331,-61.345456999999996
347.3,48,-61.365778000000006,0.05475827900000001,-61.31101999999999,-61.398318999999994,0.049570236,-61.348749
371.075,49,-61.37876,0.065368544,-61.313391,-61.410270999999995,0.059066695,-61.35120500000001
394.85,50,-61.39243100000001,0.07777697,-61.314654000000004,-61.422869999999996,0.070243175,-61.352627000000005
418.625,51,-61.406693999999995,0.092098729,-61.314595,-61.435987,0.08318840200000001,-61.352798
442.4,52,-61.421451,0.10843655,-61.313015,-61.449445,0.09792006800000001,-61.351525
466.175,53,-61.436606000000005,0.12687591,-61.30973,-61.463228,0.11460401,-61.348624
489.95,54,-61.452059,0.1474878,-61.304572,-61.477295,0.13338979,-61.343906000000004
513.725,55,-61.46771700000001,0.17033782,-61.29737900000001,-61.49159,0.15440911,-61.33718100000001
537.5,56,-61.48348299999999,0.19549306,-61.28799,-61.505858999999994,0.17749697,-61.328362
561.275,57,-61.499264000000004,0.22302372,-61.27624,-61.52007,0.20280447,-61.317265
585.05,58,-61.514964,0.25300146,-61.261962,-61.534174,0.23047841,-61.303695999999995
608.825,59,-61.530485,0.2854982,-61.244987,-61.548111,0.2606617,-61.287449
632.6,60,-61.545729,0.32058418,-61.225145,-61.561811,0.29349223,-61.26831800000001
656.375,61,-61.560596,0.35832746,-61.202268999999994,-61.575134,0.32894672,-61.246188000000004
680.15,62,-61.574982999999996,0.39878863,-61.176193999999995,-61.587966,0.36702748,-61.220939
703.925,63,-61.588784,0.44202641,-61.146758,-61.600232999999996,0.40784847,-61.192384999999994
727.7,64,-61.60189499999999,0.48809921,-61.113795999999994,-61.611855000000006,0.45151806,-61.160337
751.475,65,-61.614212,0.53705952,-61.077152000000005,-61.622748,0.49813777,-61.12461
775.25,66,-61.62563000000001,0.58894771,-61.03668199999999,-61.632830000000006,0.54779316,-61.085037
799.025,67,-61.636053000000004,0.64377689,-60.992276000000004,-61.642022,0.60054602,-61.041476
822.8,68,-61.64540600000001,0.70150365,-60.943902,-61.650243,0.65627473,-60.993968
846.575,69,-61.653652,0.76198981,-60.891662,-61.65746,0.71482991,-60.94263
870.35,70,-61.660803,0.82500315,-60.8358,-61.66369,0.77602765,-60.887663
894.125,71,-61.666892000000004,0.8902884,-60.776603,-61.668969,0.83966216,-60.82930699999999
917.9,72,-61.671938,0.95765084,-60.714287,-61.67331899999999,0.90557908,-60.76774
941.675,73,-61.67593299999999,1.0269806000000001,-60.648952,-61.676743,0.97369522,-60.703047999999995
965.45,74,-61.678847,1.098225,-60.580622,-61.679224,1.0439764999999999,-60.635247
989.225,75,-61.680636,1.1713593,-60.509277000000004,-61.680735999999996,1.1164139,-60.564322
1013.0,76,-61.681245999999994,1.2463723999999998,-60.434874,-61.68125,1.1910055,-60.490244
