,,CRD,CRD,CRD,CLIRAD,CLIRAD,CLIRAD
,,flug,fldg,fnetg,flug,fldg,fnetg
pressure,level,,,,,,
0.0,1,-12.500557,0.0,-12.500557,,,
1e-08,1,,,,-12.516697,8.9454817e-08,-12.516697
0.0006244,2,-12.500571,3.7116609999999995e-06,-12.500567,-12.516705,2.4463075e-06,-12.516702
0.0008759,3,-12.500577,5.2220476e-06,-12.500572,-12.516708,3.4062541e-06,-12.516703999999999
0.0012286,4,-12.500585000000001,7.3866089e-06,-12.500577,-12.516712,4.7827337e-06,-12.516707
0.0017234,5,-12.500596,1.0493269e-05,-12.500585000000001,-12.516718,6.7580021e-06,-12.516712
0.0024174,6,-12.500611,1.4949866e-05,-12.500596,-12.516727000000001,9.5918455e-06,-12.516717
0.0033909,7,-12.500633,2.1339319e-05,-12.500611,-12.516739,1.3657539e-05,-12.516725
0.0047565,8,-12.500663000000001,3.0488308000000003e-05,-12.500632000000001,-12.516755999999999,1.9491043e-05,-12.516736
0.006672,9,-12.500705,4.357815e-05,-12.500661000000001,-12.516779,2.7858159999999998e-05,-12.516751
0.0093589,10,-12.500763000000001,6.2285627e-05,-12.500701,-12.516811,3.9860668e-05,-12.516771
0.0131278,11,-12.500845,8.8985276e-05,-12.500755999999999,-12.516856,5.7070438000000006e-05,-12.516799
0.0184145,12,-12.500960000000001,0.00012702179,-12.500833,-12.516917999999999,8.1748168e-05,-12.516836999999999
0.0258302,13,-12.50112,0.00018108745,-12.500939,-12.517006,0.0001171143,-12.516888
0.0362323,14,-12.501345,0.00025772971000000003,-12.501087,-12.517127,0.00016778633000000002,-12.516959
0.0508234,15,-12.501662,0.00036614829,-12.501296,-12.517296,0.000240447,-12.517055000000001
0.0712906,16,-12.502104,0.00052647122,-12.501578,-12.517526,0.00034948016,-12.517177
0.1,17,-12.502691,0.00079296384,-12.501897999999999,-12.517822,0.0005328171900000001,-12.517289
0.140271,18,-12.503428,0.0012670832,-12.502161,-12.518167,0.0008627858,-12.517304
0.19676,19,-12.504304,0.0021030048999999998,-12.502201,-12.518527,0.0014545483999999999,-12.517072
0.275997,20,-12.505253,0.0035560665000000003,-12.501697,-12.518811,0.0025063142,-12.516304
0.3871,21,-12.506086999999999,0.0060445025,-12.500042,-12.518821,0.0043573293,-12.514463000000001
0.5431,22,-12.506361,0.01024631,-12.496115,-12.518152,0.0075858999,-12.510566
0.7617,23,-12.505092,0.017205283000000002,-12.487886999999999,-12.516022999999999,0.013134488,-12.502889
1.0685,24,-12.500836,0.027924376,-12.472911999999999,-12.511383,0.022119673,-12.489264
1.4988,25,-12.493714,0.041123757999999996,-12.452589999999999,-12.504331,0.034264574,-12.470066000000001
2.1024,26,-12.485476,0.053800929000000004,-12.431675,-12.49612,0.047867394,-12.448252
2.949,27,-12.476915,0.064478881,-12.412436999999999,-12.487376,0.06161513,-12.425761
4.1366,28,-12.468386,0.072725737,-12.395661,-12.478446,0.074261439,-12.404183999999999
5.8025,29,-12.460157,0.078865857,-12.381291000000001,-12.469635,0.084602184,-12.385033
8.1392,30,-12.4523,0.083972536,-12.368328,-12.461131,0.09205026300000001,-12.36908
11.417,31,-12.444908999999999,0.089314188,-12.355594,-12.45322,0.096981414,-12.356238000000001
16.0147,32,-12.438722,0.095797621,-12.342924,-12.446903,0.10082593,-12.346077000000001
22.464,33,-12.435496,0.10426822,-12.331228,-12.444236,0.10603703,-12.338199000000001
31.5105,34,-12.437007000000001,0.11666256,-12.320344,-12.4477,0.1163604,-12.331339999999999
44.2001,35,-12.445435,0.1351993,-12.310235,-12.461039,0.13508389,-12.325955
62.0,36,-12.467319,0.16047301,-12.306846,-12.493375,0.16316274,-12.330212
85.775,37,-12.514159,0.19194514,-12.322213,-12.558916,0.19960171,-12.359314
109.55,38,-12.578161,0.22367179,-12.354489,-12.645828,0.23613296,-12.409695
133.325,39,-12.657891000000001,0.25731137,-12.400578999999999,-12.752057,0.27403316,-12.478024000000001
157.1,40,-12.757181,0.2911608,-12.46602,-12.879632,0.31200743,-12.567625
180.875,41,-12.879875,0.32770053,-12.552175,-13.029172,0.35184997,-12.677322
204.65,42,-13.022196000000001,0.37763601,-12.64456,-13.195110999999999,0.40240144,-12.792710000000001
228.425,43,-13.179,0.45404671,-12.724953999999999,-13.372872000000001,0.47587258,-12.896999000000001
252.2,44,-13.350394,0.56280927,-12.787585,-13.562582999999998,0.57904056,-12.983543
275.975,45,-13.539543,0.70977503,-12.829768,-13.767107999999999,0.71846037,-13.048648
299.75,46,-13.751129999999998,0.90148612,-12.849644,-13.990894,0.90290087,-13.087992999999999
323.525,47,-13.980398999999998,1.1299122,-12.850487,-14.229314000000002,1.121742,-13.107572
347.3,48,-14.224744,1.3942122,-12.830532,-14.48015,1.3722284,-13.107922
371.075,49,-14.484023,1.6977716,-12.786251,-14.743442000000002,1.6599528000000001,-13.083489
394.85,50,-14.757923000000002,2.0429927,-12.71493,-15.018943,1.9893408,-13.029602
418.625,51,-15.045931,2.4313191,-12.614612,-15.306425,2.3613381,-12.945087
442.4,52,-15.347757000000001,2.8632315,-12.484525999999999,-15.6059,2.7746803,-12.831219
466.175,53,-15.66056,3.333414,-12.327146,-15.914817999999999,3.222994,-12.691824
489.95,54,-15.982929,3.8393199,-12.143609,-16.231768,3.7050343999999997,-12.526733
513.725,55,-16.314734,4.3806219,-11.934111999999999,-16.556762,4.223126799999999,-12.333635000000001
537.5,56,-16.65568,4.956709200000001,-11.698971,-16.889792,4.7799849000000005,-12.109807
561.275,57,-17.004952,5.566593,-11.438359,-17.230083999999998,5.3758349,-11.854249000000001
585.05,58,-17.360834,6.209078,-11.151755999999999,-17.576082999999997,6.0086889999999995,-11.567394
608.825,59,-17.73045,6.9001907000000005,-10.83026,-17.935148,6.6928298999999996,-11.242318
632.6,60,-18.114183999999998,7.635038400000001,-10.479144999999999,-18.307809,7.4212158,-10.886593
656.375,61,-18.510762,8.4052224,-10.105539,-18.69272,8.1843076,-10.508413000000001
680.15,62,-18.918765,9.2035015,-9.7152633,-19.088528,8.9752394,-10.113289
703.925,63,-19.336254,10.023116,-9.313138,-19.493389,9.7898633,-9.7035255
727.7,64,-19.760842999999998,10.858454,-8.902388499999999,-19.90512,10.626612,-9.278508300000002
751.475,65,-20.189301999999998,11.704626,-8.484675900000001,-20.319997,11.484046000000001,-8.835951199999998
775.25,66,-20.616882999999998,12.556818,-8.060065,-20.733988,12.357336,-8.3766522
799.025,67,-21.036552,13.409602,-7.626949799999999,-21.139657,13.239742999999999,-7.8999143
822.8,68,-21.439308999999998,14.255167000000002,-7.1841413,-21.529613,14.120042000000002,-7.409571700000001
846.575,69,-21.817560999999998,15.081935000000001,-6.735626400000001,-21.896099,14.984738,-6.911360799999999
870.35,70,-22.169742000000003,15.877032999999999,-6.2927099,-22.237783,15.818323999999999,-6.4194586
894.125,71,-22.500298,16.632789000000002,-5.8675085,-22.558568,16.6122,-5.946368
917.9,72,-22.814253,17.35016,-5.4640937,-22.862589,17.36701,-5.495579
941.675,73,-23.112961,18.035097,-5.077864099999999,-23.150261999999998,18.089046,-5.0612156
965.45,74,-23.392606,18.693807999999997,-4.6987983,-23.416736,18.785413000000002,-4.6313236
989.225,75,-23.640239,19.331126,-4.309113900000001,-23.648557,19.461987,-4.18657
1013.0,76,-23.755175,19.950051000000002,-3.8051248999999996,-23.75518,20.122345000000003,-3.6328348
