,,CRD,CRD,CRD,CLIRAD,CLIRAD,CLIRAD
,,flug,fldg,fnetg,flug,fldg,fnetg
pressure,level,,,,,,
0.0,1,-16.108743,0.0,-16.108743,,,
1e-08,1,,,,-16.411749,8.9417808e-08,-16.411749
0.0006244,2,-16.108744,8.405095599999999e-08,-16.108744,-16.411749,1.3559616e-07,-16.411749
0.0008759,3,-16.108744,1.1841192999999999e-07,-16.108744,-16.411749,1.5536182e-07,-16.411749
0.0012286,4,-16.108744,1.681485e-07,-16.108744,-16.411749,1.8456998000000002e-07,-16.411749
0.0017234,5,-16.108744,2.4029443e-07,-16.108744,-16.411749,2.261635e-07,-16.411749
0.0024174,6,-16.108745000000003,3.449184e-07,-16.108744,-16.411749,2.8549547e-07,-16.411749
0.0033909,7,-16.108745000000003,4.9665433e-07,-16.108745000000003,-16.411749,3.7047598e-07,-16.411749
0.0047565,8,-16.108746,7.1669521e-07,-16.108745000000003,-16.411749,4.9259258e-07,-16.411749
0.006672,9,-16.108747,1.0354462999999999e-06,-16.108746,-16.41175,6.6835697e-07,-16.411749
0.0093589,10,-16.108749,1.4969434999999998e-06,-16.108747,-16.41175,9.2182084e-07,-16.411749
0.0131278,11,-16.108751,2.1648727000000003e-06,-16.108749,-16.41175,1.2876056e-06,-16.411749
0.0184145,12,-16.108754,3.1306619999999997e-06,-16.108751,-16.41175,1.8163093000000002e-06,-16.411749
0.0258302,13,-16.108757999999998,4.5249672e-06,-16.108754,-16.411751000000002,2.5803796e-06,-16.411748
0.0362323,14,-16.108764,6.535415900000001e-06,-16.108757999999998,-16.411752,3.6850225e-06,-16.411748
0.0508234,15,-16.108773,9.4352784e-06,-16.108764,-16.411753,5.2851301e-06,-16.411747000000002
0.0712906,16,-16.108785,1.3902380000000001e-05,-16.108771,-16.411754000000002,7.7608259e-06,-16.411746
0.1,17,-16.108802999999998,2.2029752e-05,-16.108781,-16.411755,1.2251414e-05,-16.411742999999998
0.140271,18,-16.108826,3.8353137e-05,-16.108788,-16.411755,2.1187282e-05,-16.411734
0.19676,19,-16.108856,7.0872367e-05,-16.108785,-16.411751000000002,3.8894503e-05,-16.411711999999998
0.275997,20,-16.10889,0.00013458876,-16.108755,-16.411737,7.365544299999999e-05,-16.411664000000002
0.3871,21,-16.108916,0.0002571929,-16.108659,-16.411703,0.00014124549,-16.411561
0.5431,22,-16.108907000000002,0.0004888673,-16.108418,-16.411623000000002,0.00027177272,-16.411351
0.7617,23,-16.108793,0.00091568243,-16.107878,-16.411451,0.00052185033,-16.410929
1.0685,24,-16.108462,0.0016299923000000001,-16.106832,-16.411123999999997,0.00096704015,-16.410157
1.4988,25,-16.107925,0.0025314392,-16.105393,-16.410652,0.0016017676,-16.40905
2.1024,26,-16.107328,0.0033854101,-16.103942,-16.410120000000003,0.0023424923,-16.407777
2.949,27,-16.106734,0.0041041541,-16.102629999999998,-16.409571,0.003155227,-16.406416
4.1366,28,-16.106169,0.0046747162,-16.101494,-16.409027,0.0040295915000000005,-16.404997
5.8025,29,-16.105645000000003,0.0051168972,-16.100528,-16.408507,0.0049629565,-16.403544
8.1392,30,-16.105164000000002,0.0054778223,-16.099686,-16.408025,0.0059635963,-16.402061
11.417,31,-16.104729000000003,0.005807609599999999,-16.098922,-16.407604,0.0070398589,-16.400564000000003
16.0147,32,-16.104375,0.0061401804,-16.098233999999998,-16.407288,0.0081837536,-16.399104
22.464,33,-16.104164,0.006512633,-16.097652,-16.407144,0.0093831661,-16.397761
31.5105,34,-16.104143,0.007018755600000001,-16.097123999999997,-16.407225,0.010677146,-16.396548000000003
44.2001,35,-16.10436,0.007776293399999999,-16.096584,-16.407604,0.012138003999999999,-16.395466
62.0,36,-16.104997,0.0088428464,-16.096155,-16.408469,0.013783953,-16.394685
85.775,37,-16.106333,0.010226885,-16.096106,-16.410064000000002,0.015546787,-16.394517
109.55,38,-16.108048999999998,0.01167256,-16.096376,-16.41199,0.017106341,-16.394883
133.325,39,-16.110045,0.013248278,-16.096797,-16.414151999999998,0.018629671,-16.395523
157.1,40,-16.112353,0.014898646000000001,-16.097454,-16.416553,0.020128635,-16.396424
180.875,41,-16.115052,0.016787576999999998,-16.098264,-16.419248,0.021778435,-16.397469
204.65,42,-16.119238,0.020507216,-16.09873,-16.423313,0.025000151,-16.398313
228.425,43,-16.129234,0.032793666,-16.09644,-16.433041,0.036080727,-16.39696
252.2,44,-16.149114,0.061947546,-16.087167,-16.452382999999998,0.062759272,-16.389623999999998
275.975,45,-16.184206,0.11694521,-16.06726,-16.486318,0.11433344,-16.371984
299.75,46,-16.241225,0.20687654,-16.034349,-16.541234,0.20245506,-16.338778
323.525,47,-16.31612,0.32446128,-15.991658,-16.613131,0.31632145,-16.296809
347.3,48,-16.407203,0.47020792,-15.936995000000001,-16.700418,0.45395636,-16.246462
371.075,49,-16.515532999999998,0.64947633,-15.866056,-16.804169,0.62334404,-16.180825
394.85,50,-16.641891,0.86674735,-15.775144000000001,-16.925076999999998,0.83130946,-16.093768
418.625,51,-16.786742,1.1256913999999998,-15.66105,-17.063595,1.0805706,-15.983023999999999
442.4,52,-16.950511,1.4291201999999998,-15.521391,-17.220171,1.3712239,-15.848947
466.175,53,-17.130402,1.7731234,-15.357279,-17.392149,1.6975796000000003,-15.694569
489.95,54,-17.325032,2.1568728,-15.168159,-17.578077,2.0600574000000003,-15.518020000000002
513.725,55,-17.534363,2.5820107999999995,-14.952353,-17.777967,2.4635005000000003,-15.314466
537.5,56,-17.758188,3.0496481,-14.70854,-17.991815,2.912919,-15.078895999999999
561.275,57,-17.995789000000002,3.5602522000000003,-14.435537,-18.218913,3.4100642999999997,-14.808848999999999
585.05,58,-18.245579,4.1139152,-14.131663,-18.457781,3.9536154000000003,-14.504166
608.825,59,-18.515944,4.732742,-13.783202,-18.716781,4.5625199,-14.154260999999998
632.6,60,-18.807344,5.4131362,-13.394207999999999,-18.996420999999998,5.2294111,-13.767009
656.375,61,-19.118297000000002,6.1463765,-12.971921,-19.295151999999998,5.943260400000001,-13.351892000000001
680.15,62,-19.447177,6.924525,-12.522652,-19.611403,6.6964725000000005,-12.91493
703.925,63,-19.791814000000002,7.7396531,-12.052161,-19.943082999999998,7.4850791,-12.458003999999999
727.7,64,-20.149628,8.5848295,-11.564799,-20.287820999999997,8.308378,-11.979443
751.475,65,-20.51727,9.4537545,-11.063516,-20.641819,9.165474099999999,-11.476345
775.25,66,-20.889966,10.340133999999999,-10.549832,-21.00096,10.051063000000001,-10.949898
799.025,67,-21.260779,11.237176,-10.023603,-21.357886999999998,10.956719999999999,-10.401167999999998
822.8,68,-21.620792,12.13597,-9.484822,-21.705167000000003,11.86926,-9.835906699999999
846.575,69,-21.962172,13.024135000000001,-8.938037,-22.03479,12.773222,-9.261568800000001
870.35,70,-22.282575,13.88809,-8.3944854,-22.344683,13.651775,-8.6929084
894.125,71,-22.585397,14.719172,-7.8662246,-22.637863,14.495616,-8.142246400000001
917.9,72,-22.874835,15.516907999999999,-7.3579273,-22.917824,15.305119,-7.6127050999999994
941.675,73,-23.151896,16.285704,-6.8661921,-23.18478,16.086671,-7.098109200000001
965.45,74,-23.412969,17.030407,-6.3825614999999996,-23.434151,16.847714,-6.5864364
989.225,75,-23.646175,17.754811,-5.891364,-23.653474,17.594524,-6.058950599999999
1013.0,76,-23.755175,18.460905,-5.2942705000000005,-23.75518,18.330634,-5.4245458
