,,CRD,CRD,CRD,CLIRAD,CLIRAD,CLIRAD
,,flug,fldg,fnetg,flug,fldg,fnetg
pressure,level,,,,,,
0.0,1,-27.530084000000002,0.0,-27.530084000000002,,,
1e-08,1,,,,-27.161709000000002,1.2295565e-06,-27.161707
0.0006244,2,-27.530099,3.4204655e-05,-27.530065000000004,-27.161725,2.5389085e-05,-27.1617
0.0008759,3,-27.530106,4.7961282e-05,-27.530058,-27.161732,3.5220218e-05,-27.161696999999997
0.0012286,4,-27.530114,6.757762e-05,-27.530046999999996,-27.161741999999997,4.9339058e-05,-27.161692
0.0017234,5,-27.530126,9.549239299999999e-05,-27.530031,-27.161755,6.961303e-05,-27.161685
0.0024174,6,-27.530141999999998,0.0001350472,-27.530007,-27.161772999999997,9.8689475e-05,-27.161673999999998
0.0033909,7,-27.530165000000004,0.00019084998,-27.529974,-27.161797999999997,0.00014033547,-27.161658000000003
0.0047565,8,-27.530196000000004,0.00026909374,-27.529927,-27.161833,0.00019986707,-27.161634000000003
0.006672,9,-27.530240000000003,0.00037796908,-27.529861999999998,-27.161883000000003,0.00028473655,-27.161597999999998
0.0093589,10,-27.530301,0.00052802163,-27.529773,-27.161951000000002,0.00040526884,-27.161546
0.0131278,11,-27.530386,0.00073235659,-27.529653000000003,-27.162048,0.00057562003,-27.161472999999997
0.0184145,12,-27.530506,0.0010065439999999998,-27.5295,-27.162184999999997,0.0008147658900000001,-27.161371000000003
0.0258302,13,-27.530679,0.0013679186999999999,-27.529311,-27.162381,0.0011469922,-27.161234000000004
0.0362323,14,-27.530932,0.0018342197,-27.529097999999998,-27.162665000000004,0.0016020304,-27.161063000000002
0.0508234,15,-27.531316999999998,0.002426678,-27.528890999999998,-27.163085,0.0022175838000000002,-27.160867
0.0712906,16,-27.531889000000003,0.0032441953,-27.528645,-27.163690000000003,0.0031043134999999998,-27.160586
0.1,17,-27.532682,0.0045090534,-27.528173,-27.164515,0.0044975681,-27.160018
0.140271,18,-27.533725,0.0064536986,-27.527271999999996,-27.165585999999998,0.0066545295,-27.158931
0.19676,19,-27.535053,0.0092956393,-27.525757000000002,-27.166923999999998,0.009757204,-27.157166999999998
0.275997,20,-27.536662,0.013320805,-27.523341,-27.168515999999997,0.013892373999999999,-27.154622999999997
0.3871,21,-27.538432,0.018965813999999998,-27.519465999999998,-27.170232000000002,0.019173105,-27.151058000000003
0.5431,22,-27.539813,0.027005717000000002,-27.512807000000002,-27.171528000000002,0.026224015,-27.145304
0.7617,23,-27.538961999999998,0.03844125,-27.500521000000003,-27.170464000000003,0.036346536,-27.134117
1.0685,24,-27.535146,0.052126659000000006,-27.483019,-27.166265999999997,0.049024299,-27.117240999999996
1.4988,25,-27.529373,0.066840014,-27.462533,-27.15993,0.06343942400000001,-27.096490999999997
2.1024,26,-27.52178,0.08335095299999999,-27.438429,-27.151526,0.08004007,-27.071486
2.949,27,-27.513109000000004,0.10144472,-27.411664000000002,-27.14173,0.09826467300000001,-27.043465
4.1366,28,-27.50357,0.12173807,-27.381832,-27.130589,0.11922976,-27.011359999999996
5.8025,29,-27.493115000000003,0.14489026,-27.348225,-27.117911,0.14422597,-26.973685999999997
8.1392,30,-27.48181,0.17125637,-27.310553999999996,-27.1035,0.17372738,-26.929772999999997
11.417,31,-27.469919,0.20088115,-27.269037,-27.087552000000002,0.20587403,-26.881678000000004
16.0147,32,-27.458007000000002,0.23350043,-27.224505999999998,-27.07067,0.23787501,-26.832795
22.464,33,-27.447078,0.26863669,-27.178441999999997,-27.054247999999998,0.26699863,-26.78725
31.5105,34,-27.438483,0.30582831,-27.132655,-27.040258,0.29187855,-26.748378999999996
44.2001,35,-27.432159999999996,0.3442859,-27.087874,-27.028871000000002,0.31479953,-26.714071
62.0,36,-27.437790000000003,0.37508942,-27.0627,-27.032214,0.33556073,-26.696653
85.775,37,-27.479809999999997,0.39202359,-27.087787,-27.079712,0.35323016,-26.726482
109.55,38,-27.559565000000003,0.40906457,-27.1505,-27.171094,0.37629383,-26.7948
133.325,39,-27.67125,0.46078692,-27.210463,-27.297452000000003,0.43527885,-26.862173
157.1,40,-27.80231,0.56059761,-27.241712,-27.443646,0.54076091,-26.902884999999998
180.875,41,-27.950929,0.69508329,-27.255846000000002,-27.606993,0.68022269,-26.926771000000002
204.65,42,-28.115502000000003,0.8622971,-27.253203999999997,-27.786306,0.8535521,-26.932754
228.425,43,-28.294504999999997,1.0613415000000002,-27.233164000000002,-27.981303000000004,1.0603871,-26.920916
252.2,44,-28.486390999999998,1.2912605,-27.19513,-28.189925,1.2982897,-26.891634999999997
275.975,45,-28.689781,1.5510715,-27.138709999999996,-28.410334000000002,1.5646294,-26.845705
299.75,46,-28.903397,1.8396728,-27.063724,-28.641025,1.8573674999999998,-26.783658000000003
323.525,47,-29.126040000000003,2.1558386,-26.970201,-28.880463,2.1745551,-26.705908
347.3,48,-29.356586,2.4982472000000002,-26.858338,-29.127209000000004,2.5145774,-26.612632
371.075,49,-29.593978999999997,2.8655023999999996,-26.728476,-29.380343,2.8766926,-26.50365
394.85,50,-29.83718,3.2560875,-26.581093,-29.638975,3.2601952,-26.378778999999998
418.625,51,-30.085162,3.6684246,-26.416738,-29.901998,3.6642967000000004,-26.237702000000002
442.4,52,-30.336994,4.1010201,-26.235974,-30.168336,4.0884066,-26.079929999999997
466.175,53,-30.591763,4.552378599999999,-26.039385,-30.437203999999998,4.5322731,-25.90493
489.95,54,-30.848569,5.021007,-25.827562,-30.707814000000003,4.9954496,-25.712365
513.725,55,-31.106496000000003,5.505442700000001,-25.601054,-30.979226,5.4773814000000005,-25.501845
537.5,56,-31.364584999999998,6.0042619,-25.360323,-31.250207,5.976756900000001,-25.27345
561.275,57,-31.621808,6.516073400000001,-25.105735,-31.519777,6.4929582,-25.026819
585.05,58,-31.877001,7.0395367,-24.837464,-31.786821999999997,7.025004300000001,-24.761817999999998
608.825,59,-32.128747,7.5733439,-24.555404,-32.049957,7.5716812000000004,-24.478276
632.6,60,-32.375195,8.1160276,-24.259168,-32.30737,8.1314985,-24.175872000000002
656.375,61,-32.613865000000004,8.665854099999999,-23.948010999999997,-32.556474,8.702302900000001,-23.854171
680.15,62,-32.841805,9.2200726,-23.621733,-32.794278000000006,9.2809137,-23.513364000000003
703.925,63,-33.056975,9.773718800000001,-23.283256,-33.018868,9.8620579,-23.15681
727.7,64,-33.260809,10.319617,-22.941192,-33.231846000000004,10.438163000000001,-22.793682999999998
751.475,65,-33.458439,10.851855,-22.606585,-33.438219000000004,11.002839999999999,-22.43538
775.25,66,-33.655365,11.369736999999999,-22.285628,-33.643265,11.55461,-22.088655
799.025,67,-33.854324,11.877583,-21.976741,-33.849464000000005,12.097006,-21.752457
822.8,68,-34.0544,12.381631,-21.672769,-34.05549,12.635477999999999,-21.420012
846.575,69,-34.252134000000005,12.886777,-21.365357,-34.257707,13.174320000000002,-21.083385999999997
870.35,70,-34.443673,13.394912,-21.048761,-34.452262,13.715067999999999,-20.737194
894.125,71,-34.625707,13.905785999999999,-20.719921,-34.635760999999995,14.257339000000002,-20.378422
917.9,72,-34.795155,14.418458,-20.376697,-34.805182,14.800026999999998,-20.005155
941.675,73,-34.948398,14.932039999999999,-20.016358,-34.957108000000005,15.342170000000001,-19.614937
965.45,74,-35.080269,15.445778,-19.63449,-35.0864,15.883214,-19.203186
989.225,75,-35.181652,15.959160999999998,-19.22249,-35.18393,16.422795,-18.761135
1013.0,76,-35.223509,16.471823,-18.751687,-35.22351,16.960406,-18.263104000000002
