,,CRD,CRD,CRD,CLIRAD,CLIRAD,CLIRAD
,,flug,fldg,fnetg,flug,fldg,fnetg
pressure,level,,,,,,
0.0,1,-16.203643,0.0,-16.203643,,,
1e-08,1,,,,-15.643521,0.00018312458999999998,-15.643338
0.0006244,2,-16.204010999999998,0.0060557467000000005,-16.197955,-15.643904999999998,0.0034497282,-15.640456
0.0008759,3,-16.204178,0.0074452875,-16.196733,-15.644062,0.0046185485,-15.639443
0.0012286,4,-16.204387,0.0090442117,-16.195342999999998,-15.644264999999999,0.0061536084,-15.638110999999999
0.0017234,5,-16.20465,0.010853864,-16.193796,-15.644528,0.0081100453,-15.636417999999999
0.0024174,6,-16.20498,0.0128833,-16.192097,-15.644870999999998,0.010505261,-15.634366
0.0033909,7,-16.2054,0.01515735,-16.190242,-15.645319,0.013295817,-15.632023
0.0047565,8,-16.205937,0.017721643000000002,-16.188215,-15.645904999999999,0.016371491999999998,-15.629532999999999
0.006672,9,-16.206633,0.02064716,-16.185986,-15.646678,0.019605073,-15.627073000000001
0.0093589,10,-16.207546,0.02403378,-16.183512,-15.647707,0.022968997,-15.624738
0.0131278,11,-16.208765,0.028012416000000002,-16.180753,-15.649095,0.026665817,-15.622429
0.0184145,12,-16.210427,0.03274602,-16.177681,-15.651003,0.031133691,-15.619869
0.0258302,13,-16.212760999999997,0.038426926,-16.174333999999998,-15.653685000000001,0.036879914,-15.616805
0.0362323,14,-16.216229000000002,0.045278049,-16.170951000000002,-15.657615,0.04433586900000001,-15.613279
0.0508234,15,-16.222219,0.053688167,-16.16853,-15.66415,0.053928702,-15.610221
0.0712906,16,-16.231908999999998,0.065753693,-16.166155,-15.674385000000001,0.06748396400000001,-15.606901
0.1,17,-16.245093,0.084902329,-16.16019,-15.688089999999999,0.087899971,-15.60019
0.140271,18,-16.261776,0.11378218,-16.147993,-15.705235,0.1171321,-15.588103
0.19676,19,-16.282481,0.15575593,-16.126726,-15.726232000000001,0.15737786,-15.568854
0.275997,20,-16.307307,0.21656844,-16.090738,-15.750992000000002,0.21372377,-15.537268
0.3871,21,-16.334835,0.30505803,-16.029777,-15.777828,0.29690206,-15.480926
0.5431,22,-16.357654999999998,0.43479179,-15.922863000000001,-15.799112,0.42500731,-15.374104
0.7617,23,-16.349459,0.62027746,-15.729181,-15.789945000000001,0.61622697,-15.173718
1.0685,24,-16.297891,0.84529746,-15.452594,-15.739703,0.85103426,-14.888669
1.4988,25,-16.213209,1.0898048999999999,-15.123404,-15.65784,1.0903871,-14.567453
2.1024,26,-16.092153,1.36059,-14.731563000000001,-15.540034,1.3340404,-14.205994
2.949,27,-15.942196,1.6550566999999998,-14.287139999999999,-15.392853,1.6129813,-13.779871
4.1366,28,-15.763453,1.9883171999999998,-13.775135999999998,-15.21485,1.9813923999999998,-13.233457999999999
5.8025,29,-15.550326,2.3793203,-13.171005,-15.000618,2.425504,-12.575114
8.1392,30,-15.296744,2.8434889,-12.453255,-14.739778,2.8945564,-11.845222
11.417,31,-14.996463,3.3900361000000006,-11.606427,-14.423998000000001,3.4119022000000006,-11.012096000000001
16.0147,32,-14.643555,4.0174191,-10.626136,-14.045514,4.1253788,-9.920135499999999
22.464,33,-14.232244,4.7089791,-9.5232645,-13.600192000000002,5.0286482,-8.5715439
31.5105,34,-13.747878,5.4268691,-8.3210089,-13.064888,5.881289700000001,-7.1835979000000005
44.2001,35,-13.101428,6.0949351,-7.0064924,-12.331888000000001,6.4857832,-5.8461052
62.0,36,-12.383769000000001,6.4471819,-5.9365873,-11.491732,6.843203999999999,-4.6485278
85.775,37,-12.145667,6.3078384000000005,-5.8378284,-11.182342,6.900974300000001,-4.2813672
109.55,38,-12.808542999999998,6.156874,-6.6516687,-11.895698,6.8303424,-5.0653561
133.325,39,-14.021225,6.7529247,-7.2683004,-13.220694,7.435745699999999,-5.7849482000000005
157.1,40,-15.247221,8.0388558,-7.2083655,-14.541336,8.747706800000001,-5.793629599999999
180.875,41,-16.470570000000002,9.476793699999998,-6.993776400000001,-15.842629,10.201605,-5.641024099999999
204.65,42,-17.685005,10.975261,-6.7097447,-17.120984,11.681774,-5.4392097999999995
228.425,43,-18.88671,12.495819000000001,-6.3908913,-18.378729,13.154511,-5.2242179
252.2,44,-20.072806,14.017170000000002,-6.0556361,-19.612629000000002,14.612326999999999,-5.000302
275.975,45,-21.241764,15.526692,-5.7150717,-20.823793,16.05989,-4.763903099999999
299.75,46,-22.392717,17.016231,-5.3764867,-22.013106,17.500749,-4.5123572
323.525,47,-23.525308,18.480245999999998,-5.0450626,-23.178662,18.932049,-4.2466136
347.3,48,-24.639554999999998,19.915109,-4.7244459999999995,-24.323038,20.352657999999998,-3.9703795
371.075,49,-25.73572,21.318236,-4.4174844,-25.446663,21.756469,-3.6901940000000004
394.85,50,-26.813572999999998,22.686778,-4.1267949999999995,-26.549266999999997,23.135517,-3.4137503
418.625,51,-27.873272999999998,24.020385,-3.8528871,-27.631403999999996,24.485373000000003,-3.1460316
442.4,52,-28.915196,25.319257999999998,-3.5959376000000005,-28.694273,25.802306,-2.8919662
466.175,53,-29.939682,26.584044,-3.3556386,-29.738082000000002,27.08217,-2.6559114
489.95,54,-30.947172,27.815652000000004,-3.1315192,-30.76391,28.322933000000003,-2.440977
513.725,55,-31.938053000000004,29.015219000000002,-2.9228348,-31.770972999999998,29.524882,-2.2460904999999998
537.5,56,-32.912559,30.184058,-2.7285011000000003,-32.76109,30.688771999999997,-2.072318
561.275,57,-33.870819,31.323303999999997,-2.5475149,-33.733952,31.815993,-1.917959
585.05,58,-34.812551,32.434106,-2.3784447999999996,-34.689228,32.907855,-1.7813733
608.825,59,-35.736206,33.517390999999996,-2.2188155,-35.625473,33.966372,-1.6591011000000002
632.6,60,-36.637415999999995,34.572972,-2.0644438000000003,-36.538381,34.992968,-1.5454128999999999
656.375,61,-37.504798,35.598379,-1.9064189999999999,-37.416895000000004,35.986955,-1.4299409
680.15,62,-38.316137,36.584101000000004,-1.7320354,-38.238572,36.939995,-1.2985776000000002
703.925,63,-39.045511,37.508334999999995,-1.5371768,-38.976377,37.830712,-1.1456655
727.7,64,-39.689259,38.342433,-1.3468256,-39.626626,38.63064,-0.99598556
751.475,65,-40.280559999999994,39.079696999999996,-1.2008632,-40.222145000000005,39.33364,-0.8885054
775.25,66,-40.865235,39.746563,-1.1186723,-40.809996000000005,39.967848,-0.84214825
799.025,67,-41.477032,40.389425,-1.0876073999999998,-41.425331,40.581061,-0.84427059
822.8,68,-42.125639,41.04663,-1.0790091,-42.077771999999996,41.212711999999996,-0.86506041
846.575,69,-42.798734,41.731897,-1.0668368000000001,-42.755082,41.87637,-0.87871232
870.35,70,-43.480298,42.438108,-1.0421895,-43.441782,42.564037,-0.87774544
894.125,71,-44.15983,43.151503999999996,-1.0083266,-44.126738,43.262005,-0.86473329
917.9,72,-44.832046000000005,43.862103999999995,-0.96994163,-44.804567,43.959317,-0.84524979
941.675,73,-45.493742,44.565018,-0.92872412,-45.472869,44.650532,-0.82233674
965.45,74,-46.141338,45.258145,-0.8831929,-46.127249,45.334055,-0.79319352
989.225,75,-46.763692999999996,45.941024,-0.82266879,-46.758319,46.008431,-0.74988778
1013.0,76,-47.067549,46.613603999999995,-0.45394531,-47.06755,46.673415999999996,-0.39413401
