,,CRD,CRD,CRD,CLIRAD,CLIRAD,CLIRAD
,,flug,fldg,fnetg,flug,fldg,fnetg
pressure,level,,,,,,
0.0,1,-65.454986,0.0,-65.454986,,,
1e-08,1,,,,-65.45862199999999,1.2120972e-07,-65.45862199999999
0.0006244,2,-65.454986,5.260137900000001e-10,-65.454986,-65.45862199999999,1.2144876e-07,-65.45862199999999
0.0008759,3,-65.454986,7.4145547e-10,-65.454986,-65.45862199999999,1.2251886e-07,-65.45862199999999
0.0012286,4,-65.454986,1.0540596e-09,-65.454986,-65.45862199999999,1.2467032000000001e-07,-65.45862199999999
0.0017234,5,-65.454986,1.5080186e-09,-65.454986,-65.45862199999999,1.269307e-07,-65.45862199999999
0.0024174,6,-65.454986,2.1671348e-09,-65.454986,-65.45862199999999,1.293161e-07,-65.45862199999999
0.0033909,7,-65.454986,3.1241588e-09,-65.454986,-65.45862199999999,1.3186443e-07,-65.45862199999999
0.0047565,8,-65.454986,4.5136373e-09,-65.454986,-65.45862199999999,1.3462779e-07,-65.45862199999999
0.006672,9,-65.454986,6.5307595e-09,-65.454986,-65.45862199999999,1.3771525e-07,-65.45862199999999
0.0093589,10,-65.454986,9.4589243e-09,-65.454986,-65.45862199999999,1.412284e-07,-65.45862199999999
0.0131278,11,-65.454986,1.3709303e-08,-65.454986,-65.45862199999999,1.4537470000000001e-07,-65.45862199999999
0.0184145,12,-65.454986,1.9878689e-08,-65.454986,-65.45862199999999,1.5042112e-07,-65.45862199999999
0.0258302,13,-65.454986,2.8832984000000002e-08,-65.454986,-65.45862199999999,1.5676106e-07,-65.45862199999999
0.0362323,14,-65.454986,4.1830252000000006e-08,-65.454986,-65.45862199999999,1.6498967999999997e-07,-65.45862199999999
0.0508234,15,-65.454986,6.0872546e-08,-65.454986,-65.45862199999999,1.7663777e-07,-65.45862199999999
0.0712906,16,-65.454986,9.196098699999999e-08,-65.454986,-65.45862199999999,2.0166481e-07,-65.45862199999999
0.1,17,-65.454986,1.5069781e-07,-65.454986,-65.45862199999999,2.5183578e-07,-65.45862199999999
0.140271,18,-65.454986,2.6694295e-07,-65.454986,-65.458623,3.3534782e-07,-65.45862199999999
0.19676,19,-65.454986,4.9642036e-07,-65.454986,-65.458623,4.7360034999999995e-07,-65.45862199999999
0.275997,20,-65.454986,9.476689e-07,-65.454985,-65.458623,7.1407946e-07,-65.45862199999999
0.3871,21,-65.454986,1.8311547e-06,-65.454985,-65.458623,1.1474054e-06,-65.45862199999999
0.5431,22,-65.454986,3.5558904e-06,-65.454983,-65.458623,1.9579449e-06,-65.458621
0.7617,23,-65.454986,6.7988594999999994e-06,-65.45498,-65.458624,3.4767820000000002e-06,-65.45862
1.0685,24,-65.454986,1.181466e-05,-65.45497399999999,-65.458624,5.7931975e-06,-65.458618
1.4988,25,-65.454986,1.8217504e-05,-65.45496700000001,-65.458624,8.7208269e-06,-65.458616
2.1024,26,-65.454986,2.5783789000000002e-05,-65.45496,-65.458625,1.2180363e-05,-65.458613
2.949,27,-65.454987,3.4137946e-05,-65.454952,-65.458627,1.6016592e-05,-65.458611
4.1366,28,-65.454989,4.3182137e-05,-65.45494599999999,-65.458629,2.0200433e-05,-65.458609
5.8025,29,-65.454993,5.2942628999999996e-05,-65.45494000000001,-65.458632,2.4774018e-05,-65.458607
8.1392,30,-65.454998,6.3451001e-05,-65.45493499999999,-65.458637,2.9770441999999997e-05,-65.458607
11.417,31,-65.455007,7.4740264e-05,-65.454932,-65.45864300000001,3.5235768e-05,-65.458608
16.0147,32,-65.455019,8.6843493e-05,-65.454932,-65.458652,4.121541e-05,-65.458611
22.464,33,-65.455035,9.9811353e-05,-65.45493499999999,-65.458664,4.7767257e-05,-65.458616
31.5105,34,-65.455056,0.00011368604,-65.454942,-65.458679,5.4933006999999996e-05,-65.458624
44.2001,35,-65.455084,0.0001283847,-65.45495600000001,-65.458699,6.2665864e-05,-65.458637
62.0,36,-65.45512,0.00014243503000000002,-65.454977,-65.458725,7.044972499999999e-05,-65.45865500000001
85.775,37,-65.455161,0.00015399741000000002,-65.455007,-65.45875699999999,7.7412771e-05,-65.45868
109.55,38,-65.455198,0.0001626842,-65.455035,-65.458787,8.2956151e-05,-65.458704
133.325,39,-65.455238,0.00017340953000000002,-65.455065,-65.458821,8.9949604e-05,-65.458731
157.1,40,-65.45528900000001,0.00019086963,-65.45509799999999,-65.458863,0.00010125628,-65.458762
180.875,41,-65.45535600000001,0.00022018502999999998,-65.455136,-65.45891800000001,0.0001200606,-65.458798
204.65,42,-65.455472,0.00028249034,-65.455189,-65.459014,0.00016029534,-65.458854
228.425,43,-65.455773,0.00047896566,-65.455294,-65.459272,0.00029029236,-65.45898199999999
252.2,44,-65.456445,0.0010030939,-65.455442,-65.459864,0.0006441494200000001,-65.45922
275.975,45,-65.45777700000001,0.002228263,-65.455549,-65.46105899999999,0.0014835813,-65.459576
299.75,46,-65.46017900000001,0.0048004755999999996,-65.45537900000001,-65.463247,0.0032730470000000003,-65.459974
323.525,47,-65.464186,0.0097377658,-65.454448,-65.46695,0.0067765116,-65.460173
347.3,48,-65.47045200000001,0.018519516,-65.451933,-65.472775,0.013106432,-65.45966899999999
371.075,49,-65.479623,0.032955467,-65.446667,-65.481372,0.023763452,-65.45760899999999
394.85,50,-65.4917,0.054097133,-65.437603,-65.49282099999999,0.039854765,-65.452966
418.625,51,-65.507187,0.083999874,-65.423188,-65.507611,0.063294563,-65.444317
442.4,52,-65.526583,0.1249823,-65.401601,-65.526186,0.09626861699999999,-65.429917
466.175,53,-65.550368,0.17957731,-65.370791,-65.549095,0.14153458,-65.40756
489.95,54,-65.579001,0.2504854,-65.32851600000001,-65.57687800000001,0.20221783,-65.37465999999999
513.725,55,-65.612838,0.3403644,-65.272473,-65.60996800000001,0.28155599,-65.328412
537.5,56,-65.652225,0.45204925,-65.200176,-65.648495,0.38216029,-65.266335
561.275,57,-65.69736400000001,0.58821628,-65.109148,-65.692752,0.50716316,-65.18558900000001
585.05,58,-65.748337,0.75150192,-64.996835,-65.742921,0.65948813,-65.083433
608.825,59,-65.805081,0.94457115,-64.86050999999999,-65.799052,0.84180786,-64.95724399999999
632.6,60,-65.867253,1.1697968,-64.697456,-65.860926,1.0562146000000001,-64.804711
656.375,61,-65.93428,1.4295717,-64.504708,-65.927926,1.3039052,-64.62402
680.15,62,-66.00529,1.7257029,-64.279587,-65.99923100000001,1.5858146999999998,-64.41341700000001
703.925,63,-66.079398,2.0587994,-64.02059799999999,-66.074178,1.9028591000000001,-64.171319
727.7,64,-66.156612,2.4293063999999998,-63.727306000000006,-66.152953,2.2566242,-63.896329
751.475,65,-66.243884,2.8644363999999998,-63.379447,-66.24269699999999,2.6756585999999998,-63.567039
775.25,66,-66.34235699999999,3.358997,-62.98336,-66.34433,3.1588496,-63.185481
799.025,67,-66.452488,3.909333,-62.543155000000006,-66.458014,3.7073905,-62.750623
822.8,68,-66.57340699999999,4.5135195999999995,-62.059886999999996,-66.582378,4.3236947,-62.258683999999995
846.575,69,-66.69739799999999,5.1445889000000005,-61.552808999999996,-66.709079,4.9828116,-61.72626700000001
870.35,70,-66.820472,5.8001641,-61.02030799999999,-66.83391800000001,5.682494,-61.151424
894.125,71,-66.94021500000001,6.4851502,-60.455065000000005,-66.954269,6.4273514,-60.526917000000005
917.9,72,-67.054152,7.2039701,-59.850182,-67.06748,7.2213218999999995,-59.846159
941.675,73,-67.159086,7.9600865999999995,-59.199,-67.170254,8.067488,-59.102766
965.45,74,-67.250401,8.7563526,-58.494048,-67.257906,8.968810000000001,-58.289095999999994
989.225,75,-67.320295,9.5946734,-57.725621999999994,-67.322992,9.9282505,-57.394741
1013.0,76,-67.34945,10.478309,-56.871141,-67.34945,10.949311999999999,-56.400138
