,,CRD,CRD,CRD,CLIRAD,CLIRAD,CLIRAD
,,flug,fldg,fnetg,flug,fldg,fnetg
pressure,level,,,,,,
0.0,1,-10.995325999999999,0.0,-10.995325999999999,,,
1e-08,1,,,,-10.705945,1.9299526e-06,-10.705943
0.0006244,2,-10.995330000000001,2.2379466000000003e-06,-10.995328,-10.705947,3.5122554e-06,-10.705944
0.0008759,3,-10.995332000000001,3.3322642e-06,-10.995329,-10.705949,4.2849752e-06,-10.705944
0.0012286,4,-10.995336,5.4797919e-06,-10.995330000000001,-10.705950999999999,5.806740900000001e-06,-10.705945
0.0017234,5,-10.995341,9.5059405e-06,-10.995332000000001,-10.705954,8.6744612e-06,-10.705946
0.0024174,6,-10.99535,1.6811594e-05,-10.995333,-10.705960000000001,1.3901767999999999e-05,-10.705946
0.0033909,7,-10.995363000000001,2.9762836e-05,-10.995333,-10.705967999999999,2.3208306e-05,-10.705945
0.0047565,8,-10.995382000000001,5.2308323e-05,-10.995329,-10.70598,3.9461860999999996e-05,-10.705941000000001
0.006672,9,-10.995408,9.0986886e-05,-10.995317,-10.705997,6.742327100000001e-05,-10.705929
0.0093589,10,-10.995445,0.00015655271999999998,-10.995288,-10.706019,0.00011496393,-10.705903999999999
0.0131278,11,-10.995493,0.00026643749,-10.995227,-10.706048,0.00019497735,-10.705853
0.0184145,12,-10.995553999999998,0.00044903588,-10.995105,-10.706082,0.00032861625,-10.705753
0.0258302,13,-10.995625,0.0007497201099999999,-10.994875,-10.706116999999999,0.00055002388,-10.705567
0.0362323,14,-10.995695,0.0012405089,-10.994455,-10.706144,0.0009140749,-10.70523
0.0508234,15,-10.995756,0.0020960586,-10.993659,-10.706146,0.0015545323999999999,-10.704592
0.0712906,16,-10.995783,0.0036695932,-10.992114,-10.706089,0.0027474162,-10.703342
0.1,17,-10.99571,0.0064613281,-10.989249000000001,-10.705895,0.004901872,-10.700992999999999
0.140271,18,-10.995379,0.011184188000000001,-10.984195,-10.705401,0.0086360191,-10.696765
0.19676,19,-10.994479,0.018862622,-10.975617,-10.704299,0.014898305,-10.689401
0.275997,20,-10.992413,0.030898127999999997,-10.961514,-10.702012,0.025088127999999998,-10.676924
0.3871,21,-10.988007000000001,0.049095970999999995,-10.938911000000001,-10.697458000000001,0.041156676,-10.656301
0.5431,22,-10.978972,0.07552724599999999,-10.903445,-10.688678,0.06554462,-10.623133000000001
0.7617,23,-10.963519,0.11099406,-10.852525,-10.674072,0.10008662,-10.573985
1.0685,24,-10.943219000000001,0.15094312,-10.792276,-10.65475,0.14148877,-10.513261
1.4988,25,-10.919478999999999,0.19082003,-10.728659,-10.631795,0.18381471,-10.447980000000001
2.1024,26,-10.892510000000001,0.23000713,-10.662503,-10.605291000000001,0.22416827,-10.381122999999999
2.949,27,-10.865238,0.26768492,-10.597553,-10.57818,0.26230826,-10.315872
4.1366,28,-10.842816000000001,0.30508043,-10.537736,-10.555477,0.30089156,-10.254586
5.8025,29,-10.82889,0.34724419,-10.481646000000001,-10.540744,0.3452752,-10.195469000000001
8.1392,30,-10.822696,0.39929638,-10.4234,-10.533324,0.40193462,-10.13139
11.417,31,-10.825121000000001,0.46294518,-10.362176,-10.53425,0.47223682,-10.062013
16.0147,32,-10.843781,0.5426122,-10.301169,-10.551306,0.55941494,-9.9918909
22.464,33,-10.897376,0.64598738,-10.251389,-10.60338,0.6697761,-9.9336039
31.5105,34,-11.004191,0.79138161,-10.212809,-10.709846,0.82123903,-9.8886072
44.2001,35,-11.171191,0.99265666,-10.178533999999999,-10.879593,1.0273807,-9.8522121
62.0,36,-11.41752,1.2368163,-10.180703999999999,-11.137188,1.2794754,-9.857712699999999
85.775,37,-11.762437,1.4934569,-10.26898,-11.511542,1.5510469999999998,-9.9604951
109.55,38,-12.108055,1.6782081999999998,-10.429847,-11.902159,1.7504997,-10.151659
133.325,39,-12.446402,1.8027621999999999,-10.64364,-12.297381,1.8878941999999999,-10.409487
157.1,40,-12.789607,1.8905346,-10.899072,-12.703758,1.9867973,-10.716961
180.875,41,-13.148024,1.9581517,-11.189873,-13.12527,2.0640744,-11.061196
204.65,42,-13.487858,2.0077353,-11.480122999999999,-13.514839000000002,2.121424,-11.393415
228.425,43,-13.785510999999998,2.0431991999999997,-11.742311,-13.843304999999999,2.1628707,-11.680435000000001
252.2,44,-14.04475,2.0696247,-11.975125,-14.117080999999999,2.1940101000000003,-11.923071
275.975,45,-14.260285999999999,2.0891379,-12.171147999999999,-14.334596,2.2171447,-12.117450999999999
299.75,46,-14.43244,2.1040367,-12.328403,-14.501082,2.234681,-12.266401
323.525,47,-14.561606,2.1181502999999995,-12.443456,-14.621851000000001,2.2501567000000002,-12.371694999999999
347.3,48,-14.656464000000001,2.1340814,-12.522383,-14.708560999999998,2.2662197,-12.442341
371.075,49,-14.732045000000001,2.1526522999999997,-12.579393,-14.776542999999998,2.2841053,-12.492436999999999
394.85,50,-14.793866,2.1731328999999997,-12.620733,-14.831401000000001,2.3034035,-12.527998
418.625,51,-14.843461999999999,2.1943052000000005,-12.649157,-14.874913000000001,2.3231097999999997,-12.551803
442.4,52,-14.882126999999999,2.2150621,-12.667065,-14.908524,2.3422763,-12.566247
466.175,53,-14.913155,2.235718,-12.677437,-14.935304,2.361239,-12.574065
489.95,54,-14.939873,2.2575613,-12.682312,-14.958223,2.3812161,-12.577005999999999
513.725,55,-14.963010999999998,2.2806417999999997,-12.682369,-14.977955999999999,2.4022771,-12.575679
537.5,56,-14.982898,2.3047798999999998,-12.678118,-14.994823,2.4242747000000002,-12.570547999999999
561.275,57,-14.999858999999999,2.3298395,-12.670019,-15.009129000000001,2.4471022999999996,-12.562027
585.05,58,-15.014128,2.3555827000000003,-12.658546000000001,-15.021099,2.4705576000000002,-12.550541
608.825,59,-15.025978,2.3818357000000003,-12.644143,-15.030982,2.494494,-12.536488
632.6,60,-15.035689000000001,2.4084806,-12.627208,-15.039032,2.5188123,-12.52022
656.375,61,-15.043495000000002,2.4353401000000003,-12.608155,-15.045461999999999,2.5433602000000004,-12.502102
680.15,62,-15.049610999999999,2.46221,-12.587401,-15.050464000000002,2.5679576,-12.482507
703.925,63,-15.054257000000002,2.4890098,-12.565247,-15.054229000000001,2.5925380000000002,-12.461691
727.7,64,-15.057623000000001,2.5156925,-12.54193,-15.056925,2.6170603999999997,-12.439865
751.475,65,-15.059859,2.54213,-12.517729,-15.058684,2.6414079,-12.417276
775.25,66,-15.0611,2.5682141,-12.492886,-15.059623,2.6654804,-12.394143
799.025,67,-15.061470000000002,2.5940528,-12.467417,-15.05985,2.6893766,-12.370474
822.8,68,-15.061070999999998,2.6197775,-12.441294000000001,-15.059457,2.7132164,-12.34624
846.575,69,-15.060017000000002,2.6453113,-12.414705999999999,-15.058537,2.7369337000000002,-12.321603
870.35,70,-15.058476,2.6704833,-12.387992,-15.057232999999998,2.7603798999999998,-12.296853
894.125,71,-15.056694,2.6950693,-12.361625,-15.055747,2.7833647999999998,-12.272383
917.9,72,-15.054953,2.718823,-12.33613,-15.054307999999999,2.8056802000000003,-12.248628
941.675,73,-15.053472,2.7415701,-12.311902,-15.053092000000001,2.8271764,-12.225916
965.45,74,-15.052370000000002,2.763224,-12.289146,-15.052192000000002,2.8477725,-12.204419
989.225,75,-15.051682000000001,2.7837787,-12.267903,-15.051632999999999,2.8674551,-12.184178
1013.0,76,-15.051406,2.8032727000000004,-12.248134,-15.05141,2.8862468999999997,-12.165163
