,,CRD,CRD,CRD,CLIRAD,CLIRAD,CLIRAD
,,flug,fldg,fnetg,flug,fldg,fnetg
pressure,level,,,,,,
0.0,1,-35.017092,0.0,-35.017092,,,
1e-08,1,,,,-35.064029,1.7991162e-06,-35.064028
0.0006244,2,-35.017093,1.3287091e-06,-35.017091,-35.064029999999995,2.8991562000000005e-06,-35.064027
0.0008759,3,-35.017093,1.8663784999999998e-06,-35.017091,-35.064029999999995,3.3444821999999997e-06,-35.064027
0.0012286,4,-35.017094,2.6279242999999995e-06,-35.017091,-35.064031,3.9752710000000006e-06,-35.064027
0.0017234,5,-35.017095,3.7075133e-06,-35.017091,-35.064031,4.8692166e-06,-35.064026
0.0024174,6,-35.017096,5.2376049e-06,-35.017091,-35.064032,6.135827099999999e-06,-35.064026
0.0033909,7,-35.017098,7.4063575e-06,-35.017091,-35.064033,7.9306471e-06,-35.064025
0.0047565,8,-35.017101000000004,1.0480336e-05,-35.017091,-35.064034,1.0474049e-05,-35.064023999999996
0.006672,9,-35.017105,1.483696e-05,-35.01709,-35.064036,1.4077864999999999e-05,-35.064021999999994
0.0093589,10,-35.017109999999995,2.1011417e-05,-35.017089,-35.064039,1.9184395e-05,-35.06402
0.0131278,11,-35.017117,2.9761849e-05,-35.017087,-35.064043,2.6419842e-05,-35.064015999999995
0.0184145,12,-35.017127,4.2149912e-05,-35.017084999999994,-35.064048,3.6670899e-05,-35.064011
0.0258302,13,-35.017140000000005,5.9678529e-05,-35.017081,-35.064054999999996,5.1192767000000005e-05,-35.064004
0.0362323,14,-35.017159,8.4452935e-05,-35.017075,-35.064065,7.1765391e-05,-35.063992999999996
0.0508234,15,-35.017185999999995,0.00011945398000000001,-35.017066,-35.064078,0.00010092862,-35.063977
0.0712906,16,-35.017221,0.00016990647000000002,-35.017051,-35.064095,0.00014312579,-35.063952
0.1,17,-35.017265,0.00024645113,-35.017019,-35.064115,0.00020735907999999998,-35.063908000000005
0.140271,18,-35.017315,0.00036611275,-35.016949,-35.064133,0.00030816599999999996,-35.063824
0.19676,19,-35.017365000000005,0.00055265554,-35.016812,-35.064141,0.00046621107000000006,-35.063675
0.275997,20,-35.017406,0.00084206436,-35.016564,-35.06413,0.00071315918,-35.063417
0.3871,21,-35.017417,0.0012885874,-35.016129,-35.064077000000005,0.0010974655000000001,-35.062979999999996
0.5431,22,-35.017364,0.0019743792,-35.015389,-35.063947999999996,0.0016943982,-35.062253999999996
0.7617,23,-35.017179999999996,0.0030193745,-35.014161,-35.063685,0.0026160515,-35.061069
1.0685,24,-35.01679,0.0045704787,-35.012219,-35.063219000000004,0.0040078125,-35.059211
1.4988,25,-35.0162,0.0066905578,-35.00951,-35.062554,0.0059649132,-35.056589
2.1024,26,-35.01551,0.009368867,-35.006141,-35.061772,0.0085417166,-35.05323
2.949,27,-35.014790999999995,0.012660285,-35.002131,-35.060938,0.011855596999999999,-35.049083
4.1366,28,-35.014125,0.01667378,-34.997452,-35.060145,0.016069469,-35.044075
5.8025,29,-35.013646,0.021578094,-34.992067999999996,-35.059537,0.021380042999999998,-35.038157
8.1392,30,-35.013558,0.027643899,-34.985914,-35.059346000000005,0.028026232999999998,-35.03132
11.417,31,-35.014208,0.035263213,-34.978945,-35.059956,0.036277942,-35.023678000000004
16.0147,32,-35.016239,0.044908374,-34.971331,-35.062053000000006,0.046376363,-35.015677000000004
22.464,33,-35.020734000000004,0.057166364000000004,-34.963568,-35.066751000000004,0.058582536,-35.008169
31.5105,34,-35.029189,0.073001821,-34.956187,-35.075627000000004,0.07345062299999999,-35.002176
44.2001,35,-35.043769,0.09377251199999999,-34.949996,-35.090981,0.091972292,-34.999008
62.0,36,-35.068290000000005,0.12081545,-34.947475,-35.116636,0.11541786,-35.001218
85.775,37,-35.106919,0.15410134,-34.952816999999996,-35.156414,0.14431288,-35.012101
109.55,38,-35.150422,0.18565782,-34.964764,-35.200558,0.17222926,-35.028329
133.325,39,-35.197626,0.21648862,-34.981138,-35.247904999999996,0.200109,-35.047796000000005
157.1,40,-35.248428999999994,0.24665959,-35.001769,-35.298151000000004,0.22804927,-35.070102
180.875,41,-35.302299,0.27687276,-35.025426,-35.350640999999996,0.25653139,-35.09411
204.65,42,-35.357122,0.309272,-35.04785,-35.403617,0.28714259,-35.116475
228.425,43,-35.410858000000005,0.34548216,-35.065376,-35.455484000000006,0.32119769,-35.134285999999996
252.2,44,-35.462978,0.38535745,-35.077621,-35.505839,0.35875977,-35.147079
275.975,45,-35.513391,0.42849254,-35.084897999999995,-35.554581,0.39960084,-35.15498
299.75,46,-35.562055,0.47458066,-35.087475,-35.60165,0.44351297,-35.158136999999996
323.525,47,-35.608943,0.52338247,-35.08556,-35.647003999999995,0.49032173,-35.156682
347.3,48,-35.654033,0.57470467,-35.079329,-35.690598,0.53984685,-35.150751
371.075,49,-35.697313,0.62838314,-35.06893,-35.732409000000004,0.59194366,-35.140465
394.85,50,-35.738775,0.68427372,-35.054502,-35.772427,0.64648484,-35.125941999999995
418.625,51,-35.778411,0.74222267,-35.036189,-35.810645,0.70333159,-35.107313
442.4,52,-35.816241,0.8020938,-35.014148,-35.847064,0.76233412,-35.08473
466.175,53,-35.852305,0.86375619,-34.988549,-35.881718,0.82336915,-35.058347999999995
489.95,54,-35.886649,0.92708676,-34.959562,-35.914643,0.88631964,-35.028324
513.725,55,-35.919314,0.99198024,-34.927334,-35.945875,0.95107922,-34.994796
537.5,56,-35.95033,1.0583533999999999,-34.891976,-35.975411,1.0175055,-34.957905
561.275,57,-35.979714,1.1261405,-34.853573,-36.00327,1.0855288,-34.917741
585.05,58,-36.007474,1.1952876000000001,-34.812187,-36.029465,1.1550898,-34.874375
608.825,59,-36.033615000000005,1.2657477,-34.767866999999995,-36.054004,1.2261364,-34.827867
632.6,60,-36.058134,1.3374784,-34.720656,-36.076893,1.2986218,-34.778271999999994
656.375,61,-36.081029,1.4104417999999999,-34.670587,-36.098133000000004,1.3724863,-34.725646999999995
680.15,62,-36.102288,1.4845895,-34.617698,-36.117724,1.4476773,-34.670046
703.925,63,-36.1219,1.5598798,-34.562020000000004,-36.135671,1.5241581,-34.611513
727.7,64,-36.139852000000005,1.63628,-34.503572,-36.15198,1.6018940000000002,-34.550086
751.475,65,-36.15613,1.7137563000000002,-34.442374,-36.166655,1.6808511000000002,-34.485803000000004
775.25,66,-36.170722,1.7922703000000002,-34.378452,-36.179707,1.7609909,-34.418715999999996
799.025,67,-36.183624,1.8717703,-34.311854,-36.191156,1.8422668000000002,-34.348890000000004
822.8,68,-36.194863,1.9521756999999997,-34.242687,-36.201049,1.9245901,-34.276459
846.575,69,-36.204513,2.0333595,-34.171154,-36.209469,2.007847,-34.201622
870.35,70,-36.2127,2.1151561,-34.097544,-36.21654,2.0918978,-34.124642
894.125,71,-36.219555,2.1974082000000004,-34.022147,-36.222389,2.1766052000000005,-34.045784000000005
917.9,72,-36.225169,2.2800099,-33.945159000000004,-36.227109000000006,2.2618691,-33.96524
941.675,73,-36.229577,2.3629097999999997,-33.866667,-36.230751,2.3476315,-33.883119
965.45,74,-36.232778,2.4460892000000003,-33.786689,-36.233342,2.433862,-33.799479999999996
989.225,75,-36.234741,2.5295436000000002,-33.705197999999996,-36.234893,2.5205438,-33.714349
1013.0,76,-36.235408,2.6132749,-33.622133000000005,-36.235409999999995,2.6076662999999995,-33.627744
