,,CRD,CRD,CRD,CLIRAD,CLIRAD,CLIRAD
,,flug,fldg,fnetg,flug,fldg,fnetg
pressure,level,,,,,,
0.0,1,-21.60879,0.0,-21.60879,,,
1e-08,1,,,,-21.638339000000002,9.0464309e-08,-21.638339000000002
0.0006244,2,-21.608798999999998,2.6989209e-06,-21.608795999999998,-21.638345,1.8699687e-06,-21.638343
0.0008759,3,-21.608802999999998,3.7990182000000003e-06,-21.608798999999998,-21.638347,2.5963600000000004e-06,-21.638344
0.0012286,4,-21.608808,5.3795415e-06,-21.608802999999998,-21.63835,3.6410258999999995e-06,-21.638346
0.0017234,5,-21.608815,7.6514212e-06,-21.608807000000002,-21.638354,5.1420916e-06,-21.638348999999998
0.0024174,6,-21.608825,1.0915141e-05,-21.608814000000002,-21.638360000000002,7.2988073e-06,-21.638353
0.0033909,7,-21.608839,1.5600452e-05,-21.608824,-21.638368,1.0397915e-05,-21.638358
0.0047565,8,-21.608859,2.2320929e-05,-21.608836,-21.638379999999998,1.4850420999999998e-05,-21.638365
0.006672,9,-21.608886,3.1950261e-05,-21.608854,-21.638396,2.124788e-05,-21.638375
0.0093589,10,-21.608924,4.5731416e-05,-21.608878,-21.638417999999998,3.0436631e-05,-21.638388
0.0131278,11,-21.608977,6.5427025e-05,-21.608911,-21.638448999999998,4.3633738000000006e-05,-21.638406
0.0184145,12,-21.60905,9.3523156e-05,-21.608957,-21.638492000000003,6.258161699999999e-05,-21.63843
0.0258302,13,-21.609154,0.00013350801000000002,-21.60902,-21.638552,8.9774002e-05,-21.638462
0.0362323,14,-21.609298000000003,0.00019026212999999998,-21.609108,-21.638635,0.00012878871000000002,-21.638506
0.0508234,15,-21.609501,0.00027107042999999995,-21.60923,-21.63875,0.00018509241000000002,-21.638565
0.0712906,16,-21.609778,0.00039517504999999996,-21.609382999999998,-21.638904,0.0002726998,-21.638632
0.1,17,-21.610134,0.00060618877,-21.609527,-21.639093,0.00042332258,-21.63867
0.140271,18,-21.610563,0.00097386103,-21.60959,-21.639306,0.00068940357,-21.638616
0.19676,19,-21.611048999999998,0.0016065191,-21.609442,-21.63951,0.0011560386,-21.638354
0.275997,20,-21.611525,0.0026804256,-21.608845000000002,-21.639637,0.0019672761,-21.63767
0.3871,21,-21.611838,0.0044768945,-21.607360999999997,-21.639537,0.0033638713,-21.636173
0.5431,22,-21.611643,0.0074408216000000004,-21.604201999999997,-21.638916000000002,0.0057460285,-21.63317
0.7617,23,-21.61032,0.012132486000000001,-21.598187,-21.637295,0.0096711638,-21.627623999999997
1.0685,24,-21.607707,0.018403493,-21.589304000000002,-21.634528,0.01529193,-21.619237
1.4988,25,-21.604221,0.025340365,-21.578881,-21.630891000000002,0.02221018,-21.608681
2.1024,26,-21.600063000000002,0.032195054,-21.567868,-21.626529,0.029980958,-21.596548000000002
2.949,27,-21.595667000000002,0.038087626,-21.557579,-21.621776,0.037750989,-21.584025
4.1366,28,-21.591248,0.042702562,-21.548545999999998,-21.616802,0.044660169000000007,-21.572142000000003
5.8025,29,-21.586904999999998,0.046184853,-21.54072,-21.611704,0.049898995,-21.561805
8.1392,30,-21.582777,0.048945432999999997,-21.533832,-21.606612,0.052963952,-21.553648000000003
11.417,31,-21.579098000000002,0.051568495,-21.52753,-21.601767000000002,0.054082294,-21.547685
16.0147,32,-21.576302,0.054670725,-21.521631,-21.597632,0.054527282,-21.543104
22.464,33,-21.575206,0.05876819900000001,-21.516437,-21.595123,0.056205232,-21.538917
31.5105,34,-21.577275,0.06417864200000001,-21.513097,-21.596025,0.060807735,-21.535218
44.2001,35,-21.584969,0.070793911,-21.514175,-21.603703,0.068750013,-21.534953
62.0,36,-21.606509,0.07597738700000001,-21.530532,-21.628298,0.07710062,-21.551198
85.775,37,-21.657249,0.077522905,-21.579726,-21.687664,0.082390993,-21.605273
109.55,38,-21.731932999999998,0.07945444,-21.652479,-21.773861,0.086781915,-21.687079
133.325,39,-21.825922,0.09048112,-21.735441,-21.879698,0.098770321,-21.780927
157.1,40,-21.932441,0.11478664,-21.817654,-21.997842000000002,0.12319047,-21.874651
180.875,41,-22.050169,0.1497107,-21.900458,-22.1266,0.15856814,-21.968031
204.65,42,-22.177964000000003,0.19472102,-21.983242999999998,-22.264615,0.20442649,-22.060189
228.425,43,-22.314774,0.24967333,-22.065101000000002,-22.410835000000002,0.26050231,-22.150333
252.2,44,-22.459623,0.31452162,-22.145101,-22.564071,0.32657633,-22.237495000000003
275.975,45,-22.611601,0.38924161,-22.222359,-22.723469,0.4023978,-22.321071
299.75,46,-22.76985,0.47380821,-22.296042,-22.888184,0.48774386,-22.40044
323.525,47,-22.933562,0.56818616,-22.365376,-23.057214000000002,0.58235165,-22.474861999999998
347.3,48,-23.101963,0.67232875,-22.429634,-23.230042,0.6860191,-22.544023000000003
371.075,49,-23.27431,0.78617805,-22.488132,-23.40588,0.79852786,-22.607353
394.85,50,-23.449876,0.90966084,-22.540215,-23.583922,0.9196427,-22.664279
418.625,51,-23.62794,1.0426949,-22.585245,-23.763510999999998,1.0492063999999999,-22.714305
442.4,52,-23.807803,1.1851973999999998,-22.622605,-23.944088,1.1871334999999998,-22.756954999999998
466.175,53,-23.988764,1.3370818000000002,-22.651682,-24.124897,1.3332805,-22.791616
489.95,54,-24.170115,1.4982543,-22.671861,-24.305203,1.4875098999999998,-22.817693
513.725,55,-24.351126,1.6686193,-22.682507,-24.484208,1.6497578000000002,-22.83445
537.5,56,-24.531029,1.8480802,-22.682949,-24.661328,1.8200174,-22.841310999999997
561.275,57,-24.709001,2.0365335,-22.672468,-24.835677,1.9982687,-22.837408
585.05,58,-24.884139,2.2338723,-22.650267000000003,-25.006348000000003,2.1844572,-22.821891
608.825,59,-25.055415,2.4399777,-22.615437,-25.172373,2.3785172,-22.793855999999998
632.6,60,-25.221641,2.654664,-22.566976999999998,-25.332719,2.5803534,-22.752366000000002
656.375,61,-25.381497,2.8776162,-22.503881,-25.486391,2.789843,-22.696548
680.15,62,-25.533797,3.1081239,-22.425673,-25.632639,3.0065447999999995,-22.626094000000002
703.925,63,-25.678182,3.3446336000000003,-22.333548999999998,-25.771504999999998,3.2292581,-22.542247
727.7,64,-25.815904999999997,3.5846311,-22.231274,-25.904327,3.4558998,-22.448427
751.475,65,-25.949394,3.8257107000000006,-22.123683,-26.033107,3.6843727999999993,-22.348734
775.25,66,-26.080634,4.0670676,-22.013567000000002,-26.159277,3.9137125,-22.245564
799.025,67,-26.210005,4.3097958,-21.900209,-26.282798,4.1445704,-22.138228
822.8,68,-26.336214000000002,4.556039299999999,-21.780175,-26.402178999999997,4.378803,-22.023376000000003
846.575,69,-26.457021,4.8078202,-21.649201,-26.515271999999996,4.6182934,-21.896979
870.35,70,-26.570159000000004,5.0662437,-21.503916,-26.619984999999996,4.864240000000001,-21.755745
894.125,71,-26.673640999999996,5.331567,-21.342074,-26.714399,5.1172032,-21.597196
917.9,72,-26.765568,5.6036304,-21.161936999999998,-26.796746000000002,5.3772455,-21.419501
941.675,73,-26.843807,5.8821620999999995,-20.961644,-26.865158,5.6442319,-21.220926000000002
965.45,74,-26.905687,6.166966,-20.738720999999998,-26.917406,5.9180517,-20.999354
989.225,75,-26.947428000000002,6.457854900000001,-20.489573,-26.95095,6.1985038,-20.752447
1013.0,76,-26.962746000000003,6.7546218,-20.208123999999998,-26.96275,6.485386,-20.477364
