,,CRD,CRD,CRD,CLIRAD,CLIRAD,CLIRAD
,,flug,fldg,fnetg,flug,fldg,fnetg
pressure,level,,,,,,
0.0,1,-19.704359,0.0,-19.704359,,,
1e-08,1,,,,-19.778778,1.8878805e-06,-19.778776
0.0006244,2,-19.704394,4.9973595999999994e-05,-19.704344,-19.778806,3.94698e-05,-19.778767000000002
0.0008759,3,-19.704407999999997,7.089536299999999e-05,-19.704337,-19.778817999999998,5.5321348e-05,-19.778762
0.0012286,4,-19.704428,0.00010317163000000001,-19.704325,-19.778833,7.9755508e-05,-19.778753
0.0017234,5,-19.704454000000002,0.00015283969999999999,-19.704301,-19.778854,0.00011736293,-19.778737
0.0024174,6,-19.704489000000002,0.00022888584,-19.70426,-19.778882,0.00017504761000000004,-19.778707
0.0033909,7,-19.704535999999997,0.00034462267,-19.704192000000003,-19.77892,0.00026322186000000004,-19.778657
0.0047565,8,-19.704598,0.0005194239599999999,-19.704079,-19.77897,0.00039819290999999995,-19.778571
0.006672,9,-19.704678,0.00078089533,-19.703897,-19.779034,0.0006043021299999999,-19.778429
0.0093589,10,-19.70478,0.0011675434,-19.703612,-19.779115,0.00091675573,-19.778199
0.0131278,11,-19.704905,0.0017312764,-19.703174,-19.779216,0.0013859375,-19.777829999999998
0.0184145,12,-19.705054999999998,0.0025392609,-19.702516,-19.779335999999997,0.0020819281,-19.777254
0.0258302,13,-19.705226,0.0036739292,-19.701552,-19.77947,0.0030979313,-19.776372
0.0362323,14,-19.705404,0.0052295972999999996,-19.700174,-19.779606,0.0045482885,-19.775057999999998
0.0508234,15,-19.70557,0.007280609300000001,-19.698289000000003,-19.779729,0.0065359247,-19.773193
0.0712906,16,-19.70572,0.009852758199999999,-19.695868,-19.77983,0.0091039576,-19.770726
0.1,17,-19.705842,0.01297487,-19.692867,-19.779895,0.012235282,-19.767659
0.140271,18,-19.705889000000003,0.016717748,-19.689172,-19.779878,0.015860242,-19.764017000000003
0.19676,19,-19.705778,0.021201084,-19.684576999999997,-19.779701,0.019898309,-19.759803
0.275997,20,-19.70535,0.026640471000000002,-19.678709,-19.779226,0.024425872,-19.7548
0.3871,21,-19.704261,0.033408027,-19.670853,-19.778151,0.02988693,-19.748264000000002
0.5431,22,-19.701519,0.04203996,-19.659479,-19.775594,0.037132066,-19.738462
0.7617,23,-19.696762,0.051764008,-19.644998,-19.77117,0.045988364000000004,-19.725182
1.0685,24,-19.691157999999998,0.061348539,-19.629808999999998,-19.765856,0.055618295,-19.710238
1.4988,25,-19.685283,0.07141793099999999,-19.613865,-19.760161,0.066349978,-19.693811
2.1024,26,-19.679195999999997,0.082899307,-19.596297,-19.754134,0.078658505,-19.675476
2.949,27,-19.673094,0.09633217699999999,-19.576762,-19.747972,0.092948268,-19.655023999999997
4.1366,28,-19.667661,0.11215429,-19.555507000000002,-19.742256,0.11023254,-19.632023
5.8025,29,-19.663487,0.13169858,-19.531788,-19.737479,0.13267565,-19.604804
8.1392,30,-19.660313000000002,0.15747346,-19.502839,-19.733362,0.16382063,-19.569542000000002
11.417,31,-19.658307,0.19141,-19.466897,-19.730109,0.20551418,-19.524595
16.0147,32,-19.659022,0.23499652,-19.424025,-19.72941,0.2574265,-19.471984
22.464,33,-19.666156,0.29095928,-19.375197,-19.735288,0.31892448,-19.416363
31.5105,34,-19.682185,0.36823326,-19.313952,-19.750465,0.39611279,-19.354352
44.2001,35,-19.706317000000002,0.4805479,-19.225769,-19.77376,0.50143533,-19.272323999999998
62.0,36,-19.740216,0.63904935,-19.101167,-19.807089,0.65457912,-19.15251
85.775,37,-19.78456,0.84807276,-18.936488,-19.851498,0.87563952,-18.975859
109.55,38,-19.827966,1.0524189,-18.775547,-19.895526,1.1036224,-18.791904000000002
133.325,39,-19.873644,1.2467108,-18.626932999999998,-19.942182,1.3224873,-18.619695
157.1,40,-19.925573999999997,1.4329037,-18.49267,-19.995244,1.5283652,-18.466879000000002
180.875,41,-19.984614,1.6139309,-18.370683,-20.055503,1.7233541,-18.332148999999998
204.65,42,-20.05183,1.7910078999999999,-18.260822,-20.124119,1.909529,-18.21459
228.425,43,-20.128452,1.9637388999999998,-18.164713,-20.202942,2.0885741,-18.114368
252.2,44,-20.216624,2.1323484,-18.084276000000003,-20.294481,2.2614375,-18.033043
275.975,45,-20.320791,2.2975058999999995,-18.023286,-20.403423,2.4291251,-17.974298
299.75,46,-20.450006,2.4622862999999997,-17.987719,-20.538515,2.5949832,-17.943532
323.525,47,-20.603526000000002,2.6450823,-17.958444,-20.69791,2.7773787,-17.920531
347.3,48,-20.767431,2.8667860000000003,-17.900645,-20.866481,2.9971072999999997,-17.869374
371.075,49,-20.93303,3.1281871,-17.804842999999998,-21.035505,3.2552488,-17.780256
394.85,50,-21.102454,3.4359870000000003,-17.666467,-21.206902,3.5564247000000004,-17.650477
418.625,51,-21.277473,3.79875,-17.478723000000002,-21.3822,3.9069951,-17.475205
442.4,52,-21.457989,4.217531,-17.240458,-21.561126,4.3077157999999995,-17.253410000000002
466.175,53,-21.643504999999998,4.6907738,-16.952731,-21.743406,4.7585419,-16.984864
489.95,54,-21.833021,5.2148825,-16.618139000000003,-21.928216,5.2571069,-16.671110000000002
513.725,55,-22.025087,5.7852166,-16.23987,-22.11436,5.7977369,-16.316623
537.5,56,-22.21783,6.396484200000001,-15.821345,-22.299915,6.3727289,-15.927187
561.275,57,-22.409039,7.0427181,-15.366320000000002,-22.482957,6.9769147,-15.506043
585.05,58,-22.596367,7.7176116,-14.878756,-22.661394,7.607190400000001,-15.054204
608.825,59,-22.777484,8.4141956,-14.363289000000002,-22.833134,8.2600006,-14.573132999999999
632.6,60,-22.950331,9.125141000000001,-13.82519,-22.996395,8.9294236,-14.066970999999999
656.375,61,-23.11324,9.8429609,-13.270279,-23.149662,9.6078504,-13.541812
680.15,62,-23.264951,10.560386,-12.704564,-23.291922,10.2872,-13.004722000000001
703.925,63,-23.404539,11.27089,-12.13365,-23.422307999999997,10.960379,-12.461929
727.7,64,-23.531185999999998,11.968814,-11.562372,-23.540141000000002,11.621869,-11.918272
751.475,65,-23.643853,12.649609,-10.994244,-23.644533,12.267844,-11.376689
775.25,66,-23.740921,13.309845000000001,-10.431076,-23.734061999999998,12.895682,-10.83838
799.025,67,-23.819685999999997,13.946664000000002,-9.873022099999998,-23.806307,13.503097,-10.303211
822.8,68,-23.875817,14.55725,-9.318566699999998,-23.857373000000003,14.088239999999999,-9.7691329
846.575,69,-23.903351999999998,15.137343,-8.766009,-23.881755,14.647153,-9.2346014
870.35,70,-23.897257999999997,15.678526999999999,-8.2187304,-23.875,15.17141,-8.703589599999999
894.125,71,-23.859091,16.168614,-7.6904773,-23.838779000000002,15.649116000000001,-8.189663099999999
917.9,72,-23.79963,16.594893,-7.204737299999999,-23.783204,16.067867,-7.7153375
941.675,73,-23.733078,16.953998000000002,-6.7790798,-23.721416,16.423931,-7.297484299999999
965.45,74,-23.670242000000002,17.254626000000002,-6.4156151,-23.663393,16.724909,-6.9384838
989.225,75,-23.618825,17.507544,-6.111280799999999,-23.616232,16.980578,-6.6356541
1013.0,76,-23.591138,17.721819,-5.8693191,-23.59114,17.199191,-6.3919486
