,,CRD,CRD,CRD,CLIRAD,CLIRAD,CLIRAD
,,flug,fldg,fnetg,flug,fldg,fnetg
pressure,level,,,,,,
0.0,1,-30.744163,0.0,-30.744163,,,
1e-08,1,,,,-30.806082,1.2149015e-06,-30.806081
0.0006244,2,-30.744163,4.1661121e-09,-30.744163,-30.806082,1.216696e-06,-30.806081
0.0008759,3,-30.744163,5.8656606e-09,-30.744163,-30.806082,1.2174366e-06,-30.806081
0.0012286,4,-30.744163,8.3148104e-09,-30.744163,-30.806082,1.2185093000000001e-06,-30.806081
0.0017234,5,-30.744163,1.1851021000000001e-08,-30.744163,-30.806082,1.2200499999999999e-06,-30.806081
0.0024174,6,-30.744163,1.6955723999999998e-08,-30.744163,-30.806082,1.2222634e-06,-30.806081
0.0033909,7,-30.744163,2.4324917999999998e-08,-30.744163,-30.806082,1.2254464e-06,-30.806081
0.0047565,8,-30.744163,3.4962476000000005e-08,-30.744163,-30.806082,1.2300266e-06,-30.806081
0.006672,9,-30.744163,5.0315984e-08,-30.744163,-30.806082,1.2366188000000002e-06,-30.806081
0.0093589,10,-30.744163,7.2475449e-08,-30.744163,-30.806082,1.2461099e-06,-30.806081
0.0131278,11,-30.744163,1.0445541000000001e-07,-30.744163,-30.806082,1.2597886000000001e-06,-30.806081
0.0184145,12,-30.744163,1.5060571e-07,-30.744163,-30.806082,1.2795435e-06,-30.806081
0.0258302,13,-30.744163,2.172011e-07,-30.744163,-30.806082,1.3080476999999998e-06,-30.806081
0.0362323,14,-30.744164,3.1329536e-07,-30.744163,-30.806082,1.3491553000000002e-06,-30.806081
0.0508234,15,-30.744164,4.5220251e-07,-30.744163,-30.806082,1.4084877e-06,-30.806081
0.0712906,16,-30.744164,6.6498042e-07,-30.744163,-30.806082,1.4991844000000001e-06,-30.806081
0.1,17,-30.744164,1.0416101999999998e-06,-30.744163,-30.806082,1.6591614999999998e-06,-30.806081
0.140271,18,-30.744164,1.7710387e-06,-30.744162,-30.806083,1.9670100999999998e-06,-30.806081
0.19676,19,-30.744165000000002,3.1847642e-06,-30.744161,-30.806083,2.5579959e-06,-30.806079999999998
0.275997,20,-30.744165000000002,5.9092327e-06,-30.744159000000003,-30.806083,3.6840409e-06,-30.806078999999997
0.3871,21,-30.744164,1.1127989e-05,-30.744153000000004,-30.806083,5.8134547e-06,-30.806077000000002
0.5431,22,-30.744162,2.1078027e-05,-30.744141,-30.806083,9.8402801e-06,-30.806072999999998
0.7617,23,-30.744156,3.9836877e-05,-30.744115999999998,-30.806082,1.7566598e-05,-30.806064000000003
1.0685,24,-30.744144,7.2861072e-05,-30.744071,-30.806078000000003,3.1287037e-05,-30.806046999999996
1.4988,25,-30.744126,0.00011974931999999999,-30.744006,-30.806072999999998,5.0826814999999994e-05,-30.806023
2.1024,26,-30.744108,0.00017436752000000002,-30.743933000000002,-30.806069,7.3916435e-05,-30.805995000000003
2.949,27,-30.744090999999997,0.00023430811000000001,-30.743857000000002,-30.806065999999998,9.9806081e-05,-30.805965999999998
4.1366,28,-30.744078000000002,0.00029900949000000003,-30.743778999999996,-30.806065999999998,0.0001284629,-30.805937
5.8025,29,-30.744071,0.00036865023,-30.743702000000003,-30.806069,0.00016022828000000002,-30.805909000000003
8.1392,30,-30.744071,0.0004443581,-30.743626000000003,-30.806077000000002,0.00019589903999999998,-30.805881
11.417,31,-30.74408,0.0005276806099999999,-30.743552,-30.806091,0.00023651926,-30.805854999999998
16.0147,32,-30.744103000000003,0.00061954118,-30.743483,-30.806114,0.00028293540000000003,-30.805832000000002
22.464,33,-30.744142999999998,0.00072128291,-30.743422,-30.80615,0.00033632466,-30.805814
31.5105,34,-30.744208,0.0008388495,-30.743369,-30.806203000000004,0.00040035327000000005,-30.805803000000004
44.2001,35,-30.744304999999997,0.00098211272,-30.743322999999997,-30.806281,0.00048135680999999997,-30.805799
62.0,36,-30.744448,0.0011593003,-30.743289,-30.806395000000002,0.00058604986,-30.805809000000004
85.775,37,-30.744647999999998,0.0013709257999999999,-30.743277000000003,-30.806556,0.00071753267,-30.805838
109.55,38,-30.744854999999998,0.0015726635000000001,-30.743283,-30.806726,0.00084833487,-30.805878000000003
133.325,39,-30.745070000000002,0.0017750613,-30.743295,-30.806904,0.0009832602,-30.805921
157.1,40,-30.745290999999998,0.0019786578,-30.743312,-30.807087,0.0011209996000000001,-30.805965999999998
180.875,41,-30.745528000000004,0.0021990756,-30.743329,-30.807285999999998,0.0012726303,-30.806014
204.65,42,-30.745906,0.0025905213000000002,-30.743315000000003,-30.807605,0.0015428622,-30.806062
228.425,43,-30.746939,0.0038893124,-30.74305,-30.808506,0.0024555949,-30.80605
252.2,44,-30.749307,0.0074834713,-30.741823999999998,-30.810628,0.0050421091999999995,-30.805585999999998
275.975,45,-30.75403,0.015893308999999998,-30.738137,-30.814951,0.011298319,-30.803653000000004
299.75,46,-30.76248,0.032922402999999996,-30.729558,-30.822805,0.024547016,-30.798258
323.525,47,-30.774246999999995,0.058992833,-30.715253999999998,-30.833855,0.04588607,-30.787969
347.3,48,-30.78923,0.094956038,-30.694274,-30.847965000000002,0.07654924099999999,-30.771416
371.075,49,-30.807834000000003,0.14284717,-30.664987,-30.865562,0.11892039,-30.746640999999997
394.85,50,-30.830443,0.20468756,-30.625754999999998,-30.88707,0.17539984,-30.71167
418.625,51,-30.857403,0.28239105,-30.575012,-30.912812,0.24786251,-30.664949
442.4,52,-30.889053000000004,0.3777411,-30.511312,-30.943046999999996,0.33757248,-30.605475
466.175,53,-30.924967,0.49020088,-30.434765999999996,-30.977419,0.44376463,-30.533654
489.95,54,-30.964995000000002,0.62020777,-30.344788,-31.015825,0.56656433,-30.44926
513.725,55,-31.009278000000002,0.7692883,-30.239990000000002,-31.058448,0.70735206,-30.351096000000002
537.5,56,-31.057907,0.93903368,-30.118872999999997,-31.105221000000004,0.86733217,-30.237889000000003
561.275,57,-31.110864000000003,1.131052,-29.979812,-31.156175,1.0489808,-30.107194
585.05,58,-31.167976,1.3470931000000002,-29.820882,-31.211199,1.2550047,-29.956195
608.825,59,-31.231903000000003,1.5996072000000001,-29.632296000000004,-31.272973999999998,1.4983513000000002,-29.774623
632.6,60,-31.303041999999998,1.8913328999999999,-29.411709000000002,-31.341943,1.7822873,-29.559655
656.375,61,-31.381142999999998,2.2225502999999995,-29.158593,-31.417811999999998,2.1065236,-29.311288
680.15,62,-31.465829,2.593542,-28.872287,-31.500182000000002,2.4702759999999997,-29.029906
703.925,63,-31.556465000000003,3.0041302000000005,-28.552334000000002,-31.588440999999996,2.8725615,-28.71588
727.7,64,-31.652209000000003,3.4541052000000003,-28.198103000000003,-31.681764,3.3131281,-28.368636
751.475,65,-31.751936999999998,3.9430172,-27.808919,-31.778996999999997,3.7927388999999994,-27.986258000000003
775.25,66,-31.854114000000003,4.469881299999999,-27.384233000000002,-31.878653000000003,4.3125766,-27.566076000000002
799.025,67,-31.956743,5.0331151,-26.923628000000004,-31.978741999999997,4.8735525,-27.105190000000004
822.8,68,-32.057503000000004,5.630082499999999,-26.427421000000002,-32.077106,5.4753269,-26.601778999999997
846.575,69,-32.154377000000004,6.2565526,-25.897825,-32.171753,6.1147209,-26.057032
870.35,70,-32.246390999999996,6.9069466,-25.339444,-32.2617,6.7854912,-25.476209
894.125,71,-32.333524,7.575937700000001,-24.757586,-32.346779,7.480587,-24.866192
917.9,72,-32.415671,8.2597769,-24.155894,-32.42668,8.194133099999998,-24.232547
941.675,73,-32.491793,8.956212800000001,-23.53558,-32.500184000000004,8.9221044,-23.57808
965.45,74,-32.559488,9.6636474,-22.89584,-32.564797,9.661957600000001,-22.902839999999998
989.225,75,-32.613956,10.380871,-22.233085,-32.615778999999996,10.412529,-22.20325
1013.0,76,-32.637543,11.105921,-21.531622,-32.63754,11.172772,-21.464768
