,,CRD,CRD,CRD,CLIRAD,CLIRAD,CLIRAD
,,flug,fldg,fnetg,flug,fldg,fnetg
pressure,level,,,,,,
0.0,1,-34.139633,0.0,-34.139633,,,
1e-08,1,,,,-34.176755,1.8651952e-06,-34.176753000000005
0.0006244,2,-34.139634,2.7778688999999997e-08,-34.139634,-34.176755,1.8865865e-06,-34.176753000000005
0.0008759,3,-34.139634,3.9211256e-08,-34.139634,-34.176755,1.8948739e-06,-34.176753000000005
0.0012286,4,-34.139634,5.5963835e-08,-34.139634,-34.176755,1.9066844e-06,-34.176753000000005
0.0017234,5,-34.139634,8.0534804e-08,-34.139634,-34.176755,1.9244335e-06,-34.176753000000005
0.0024174,6,-34.139634,1.1655878e-07,-34.139634,-34.176755,1.9508705e-06,-34.176753000000005
0.0033909,7,-34.139634,1.6937054e-07,-34.139634,-34.176756,1.9900082e-06,-34.176753999999995
0.0047565,8,-34.139634,2.4678327e-07,-34.139634,-34.176756,2.0476924e-06,-34.176753999999995
0.006672,9,-34.139635,3.6023394000000004e-07,-34.139634,-34.176756,2.1324309e-06,-34.176753999999995
0.0093589,10,-34.139635,5.2647747e-07,-34.139635,-34.176757,2.2566365e-06,-34.176753999999995
0.0131278,11,-34.139635999999996,7.7004084e-07,-34.139635,-34.176757,2.4388744e-06,-34.176755
0.0184145,12,-34.139637,1.1268386e-06,-34.139635999999996,-34.176758,2.7072517999999995e-06,-34.176756
0.0258302,13,-34.139638,1.6494382e-06,-34.139635999999996,-34.176759999999994,3.1014415000000003e-06,-34.176757
0.0362323,14,-34.13964,2.4148987000000003e-06,-34.139638,-34.176762,3.6795275e-06,-34.176758
0.0508234,15,-34.139643,3.5492523999999998e-06,-34.139639,-34.176765,4.534752599999999e-06,-34.176759999999994
0.0712906,16,-34.139647,5.4746122e-06,-34.139641,-34.176769,5.9747005e-06,-34.176763
0.1,17,-34.139654,9.382501300000001e-06,-34.139644,-34.176776000000004,8.8604544e-06,-34.176767
0.140271,18,-34.139664,1.7708801e-05,-34.139647,-34.176788,1.4932934e-05,-34.176773
0.19676,19,-34.13968,3.5250501e-05,-34.139645,-34.176805,2.7552622e-05,-34.176778000000006
0.275997,20,-34.139703000000004,7.1708377e-05,-34.139631,-34.176832,5.3439885e-05,-34.176778000000006
0.3871,21,-34.139731,0.00014636704,-34.139584,-34.17687,0.00010586686000000001,-34.176764
0.5431,22,-34.139757,0.0002971001,-34.13946,-34.176919,0.00021253675,-34.176707
0.7617,23,-34.139761,0.00058566809,-34.139176,-34.176978000000005,0.00042439195999999994,-34.176553000000006
1.0685,24,-34.139744,0.001024146,-34.13872,-34.177051,0.00075802521,-34.176293
1.4988,25,-34.139742,0.0015552124,-34.138187,-34.177170000000004,0.0011800108,-34.175990000000006
2.1024,26,-34.139790999999995,0.0021388816000000002,-34.137652,-34.177364000000004,0.0016685060999999998,-34.175696
2.949,27,-34.139932,0.0027256953000000003,-34.137207000000004,-34.177669,0.0021916009,-34.175477
4.1366,28,-34.140198999999996,0.0032979409000000004,-34.136901,-34.178115000000005,0.0027357642,-34.175379
5.8025,29,-34.140628,0.0038528972999999998,-34.136776,-34.178740000000005,0.0032981284,-34.175442
8.1392,30,-34.141265999999995,0.0043915796,-34.136874,-34.179588,0.0038733243,-34.175715000000004
11.417,31,-34.142168,0.0049186004,-34.137249,-34.180713,0.0044565962,-34.176256
16.0147,32,-34.143402,0.0054409196,-34.137961,-34.182177,0.0050415,-34.177136
22.464,33,-34.145049,0.0059661223,-34.139083,-34.184056,0.005622799,-34.178433
31.5105,34,-34.147201,0.006499778100000001,-34.140702000000005,-34.18642,0.0061932551,-34.180227
44.2001,35,-34.149953000000004,0.007037891,-34.142915,-34.189303,0.0067377183,-34.182565000000004
62.0,36,-34.153216,0.0074991249,-34.145717,-34.192712,0.0072101034999999996,-34.185502
85.775,37,-34.1566,0.0078162611,-34.148784,-34.196432,0.007566430799999999,-34.188866
109.55,38,-34.159513000000004,0.0080379975,-34.151475,-34.199714,0.0078228413,-34.191891
133.325,39,-34.162965,0.0083742777,-34.154590999999996,-34.203499,0.0081741161,-34.195325
157.1,40,-34.167691999999995,0.0090536949,-34.158639,-34.20839,0.008804258,-34.199586
180.875,41,-34.173786,0.010220052,-34.163565999999996,-34.214396,0.0098115112,-34.204584000000004
204.65,42,-34.181298999999996,0.012026122,-34.169273,-34.221695000000004,0.011339159,-34.210356
228.425,43,-34.190255,0.014632251,-34.175623,-34.230539,0.013581858,-34.216957
252.2,44,-34.200648,0.018201581,-34.182446999999996,-34.240887,0.016695355,-34.224191
275.975,45,-34.212455,0.022901061,-34.189554,-34.252611,0.020814724,-34.231796
299.75,46,-34.225636,0.028899168,-34.196737,-34.265627,0.026089287000000003,-34.239538
323.525,47,-34.240137,0.036364426,-34.203773,-34.279893,0.032693692999999996,-34.247199
347.3,48,-34.255891,0.045464425999999995,-34.210427,-34.295175,0.040712253,-34.254462
371.075,49,-34.272818,0.056365097999999995,-34.216452000000004,-34.311467,0.050340995,-34.261126000000004
394.85,50,-34.290822999999996,0.06922755400000001,-34.221595,-34.328765999999995,0.061798938,-34.266967
418.625,51,-34.309801,0.08420775400000001,-34.225592999999996,-34.346920000000004,0.075220936,-34.271699
442.4,52,-34.329642,0.10146191,-34.22818,-34.365722,0.090688394,-34.275033
466.175,53,-34.350229999999996,0.12114265,-34.229087,-34.385143,0.10842581,-34.276717
489.95,54,-34.371439,0.14339858,-34.228041,-34.405126,0.12865205,-34.276474
513.725,55,-34.393138,0.1683746,-34.224763,-34.425576,0.15157408,-34.274002
537.5,56,-34.415188,0.19621204,-34.218976,-34.446171,0.17712534,-34.269046
561.275,57,-34.437443,0.22704773,-34.210395,-34.466838,0.20551896,-34.261319
585.05,58,-34.459751000000004,0.26101403,-34.198737,-34.487481,0.23696056,-34.25052
608.825,59,-34.481953999999995,0.29823756,-34.183716,-34.50799,0.27164769,-34.236342
632.6,60,-34.503884,0.33882725,-34.165057,-34.528238,0.30976543,-34.218472999999996
656.375,61,-34.525374,0.38286977,-34.142505,-34.548018,0.35131846,-34.1967
680.15,62,-34.546273,0.4303906,-34.115883000000004,-34.56716,0.39628119,-34.170879
703.925,63,-34.566475,0.48127205,-34.085203,-34.585589,0.4446194,-34.140969
727.7,64,-34.585953,0.53520085,-34.050753,-34.603287,0.49612496,-34.107162
751.475,65,-34.604741,0.59178269,-34.012959,-34.620279,0.55051172,-34.069767
775.25,66,-34.622848,0.650772,-33.972076,-34.636569,0.60760585,-34.028963
799.025,67,-34.640192,0.71219504,-33.927997,-34.652088,0.66745917,-33.984629
822.8,68,-34.656602,0.77630293,-33.880299,-34.666655,0.730182,-33.936473
846.575,69,-34.671851000000004,0.84342733,-33.828423,-34.680073,0.79601997,-33.884053
870.35,70,-34.68571,0.91384051,-33.77187,-34.692161999999996,0.86522684,-33.826935
894.125,71,-34.697974,0.98771616,-33.710258,-34.702759,0.93797684,-33.764783
917.9,72,-34.708452,1.0651568999999999,-33.643295,-34.711724,1.0143802,-33.697344
941.675,73,-34.716956,1.1462302,-33.570726,-34.718926,1.0945147,-33.624411
965.45,74,-34.723295,1.2309751,-33.49232,-34.72423,1.178447,-33.545783
989.225,75,-34.727264,1.3194274,-33.407837,-34.727512,1.2662744,-33.461237
1013.0,76,-34.728642,1.4116225,-33.31702,-34.728640000000006,1.3579553999999998,-33.370684999999995
