,,CRD,CRD,CRD,CLIRAD,CLIRAD,CLIRAD
,,flug,fldg,fnetg,flug,fldg,fnetg
pressure,level,,,,,,
0.0,1,-6.4809711,0.0,-6.4809711,,,
1e-08,1,,,,-6.4844338,2.1438178e-06,-6.4844317
0.0006244,2,-6.4809711,7.5334861e-10,-6.4809711,-6.4844338,2.1443666e-06,-6.4844317
0.0008759,3,-6.4809711,1.0993326e-09,-6.4809711,-6.4844338,2.1447932e-06,-6.4844317
0.0012286,4,-6.4809711,1.7104625e-09,-6.4809711,-6.4844338,2.1456185e-06,-6.4844317
0.0017234,5,-6.4809711,2.7592872e-09,-6.4809711,-6.4844338,2.1467996e-06,-6.4844317
0.0024174,6,-6.4809712,4.518321e-09,-6.4809712,-6.484433900000001,2.1485127e-06,-6.4844317
0.0033909,7,-6.4809712,7.4190609e-09,-6.4809712,-6.484433900000001,2.1510697000000002e-06,-6.4844318
0.0047565,8,-6.480971299999999,1.2138169999999999e-08,-6.480971299999999,-6.484433999999999,2.1549711000000003e-06,-6.4844318
0.006672,9,-6.4809714000000005,1.9731691000000002e-08,-6.4809714000000005,-6.4844341,2.1609743999999996e-06,-6.484431900000001
0.0093589,10,-6.480971599999999,3.184167e-08,-6.480971599999999,-6.484434200000001,2.1702956e-06,-6.484432
0.0131278,11,-6.4809719,5.100957e-08,-6.4809718,-6.4844344000000005,2.1847604999999997e-06,-6.4844323
0.0184145,12,-6.4809722999999995,8.116103000000001e-08,-6.4809722,-6.4844348,2.2072652999999995e-06,-6.484432599999999
0.0258302,13,-6.4809729,1.2832864e-07,-6.4809728,-6.4844352999999995,2.2421692e-06,-6.484433
0.0362323,14,-6.4809738,2.0177446e-07,-6.4809736,-6.4844361,2.2962597000000003e-06,-6.4844338
0.0508234,15,-6.4809752,3.1592075e-07,-6.4809749000000005,-6.4844372,2.3800665e-06,-6.4844348
0.0712906,16,-6.4809773,5.1184339e-07,-6.4809768,-6.484439,2.5247954999999997e-06,-6.4844364
0.1,17,-6.4809809000000005,9.6834792e-07,-6.480980000000001,-6.484442,2.8641919000000003e-06,-6.4844390999999995
0.140271,18,-6.4809873,2.21309e-06,-6.4809851,-6.4844474000000005,3.7870085e-06,-6.484443700000001
0.19676,19,-6.4809977,5.4471827000000005e-06,-6.4809922,-6.4844565,6.1803158e-06,-6.4844503
0.275997,20,-6.4810132000000005,1.3494739e-05,-6.4809997,-6.4844704,1.2146945e-05,-6.4844583
0.3871,21,-6.481033900000001,3.2835268999999996e-05,-6.481001,-6.48449,2.6558774e-05,-6.484463400000001
0.5431,22,-6.4810555,7.7990146e-05,-6.4809775,-6.484513099999999,6.0463353e-05,-6.4844526
0.7617,23,-6.4810625,0.00018034153,-6.4808822,-6.484529599999999,0.00013803392,-6.4843915999999995
1.0685,24,-6.4810246,0.00039914397000000005,-6.4806254999999995,-6.4845203,0.0003057924,-6.484214499999999
1.4988,25,-6.4809469,0.0007838488700000001,-6.480163,-6.4844981,0.00060549008,-6.4838926
2.1024,26,-6.4809229,0.0013243732,-6.4795985,-6.4845532,0.001038603,-6.4835145999999995
2.949,27,-6.481096400000001,0.0020008613,-6.479095500000001,-6.484829799999999,0.0016047934,-6.483225
4.1366,28,-6.4816667,0.0027315027,-6.4789352,-6.4855269,0.0022528521,-6.483274099999999
5.8025,29,-6.4828608,0.0034110021000000003,-6.4794498,-6.486871,0.0028979261,-6.4839731
8.1392,30,-6.4849919,0.0039978877,-6.480994,-6.4891938,0.0034946264,-6.4856991
11.417,31,-6.4885782,0.0044865710999999996,-6.4840917000000005,-6.4930434,0.0040226931,-6.4890207
16.0147,32,-6.4942541,0.0048589277000000005,-6.489395099999999,-6.499094599999999,0.0044504458,-6.494644200000001
22.464,33,-6.502488,0.0051120516,-6.497375900000001,-6.5078288,0.0047618375,-6.503067
31.5105,34,-6.5138031,0.0053098821,-6.5084932,-6.5197617,0.0050071256,-6.5147545
44.2001,35,-6.5290151,0.0055122107,-6.5235029,-6.5356005,0.0052400894,-6.530360400000001
62.0,36,-6.5475232000000005,0.0057016058,-6.5418216,-6.554388499999999,0.0054495106000000005,-6.548939
85.775,37,-6.565305900000001,0.00584298,-6.5594629,-6.5717944,0.0056063499,-6.5661881
109.55,38,-6.576887599999999,0.0059349552000000005,-6.5709527,-6.582745200000001,0.0057064794,-6.5770387999999995
133.325,39,-6.5850288,0.006009336,-6.5790194,-6.5902538,0.0057849508999999995,-6.5844688
157.1,40,-6.591425099999999,0.0060729545999999995,-6.5853521,-6.5960432,0.005851453,-6.5901918
180.875,41,-6.5964738,0.006132155699999999,-6.5903417,-6.600544500000001,0.005911676899999999,-6.594632799999999
204.65,42,-6.600310799999999,0.006200306700000001,-6.594110499999999,-6.603929700000001,0.0059764014,-6.5979532999999995
228.425,43,-6.603382300000001,0.0062892397,-6.597092999999999,-6.6066189,0.0060560341000000005,-6.6005629
252.2,44,-6.605982000000001,0.0064008078,-6.5995812,-6.6088823,0.0061529788,-6.602729300000001
275.975,45,-6.6081459,0.006528539200000001,-6.6016174,-6.610757400000001,0.006262115,-6.604495299999999
299.75,46,-6.6099745,0.006670224200000001,-6.6033043000000005,-6.612335799999999,0.0063819335999999996,-6.6059538
323.525,47,-6.6116056,0.006830875699999999,-6.6047747,-6.613738799999999,0.0065168935,-6.6072219
347.3,48,-6.6130728,0.007010288199999999,-6.6060625,-6.614997,0.0066668978,-6.608330099999999
371.075,49,-6.614381900000001,0.0072055353,-6.607176400000001,-6.6161166,0.0068295856,-6.609286999999999
394.85,50,-6.6155591000000005,0.007416713199999999,-6.6081424,-6.617120699999999,0.0070051411999999995,-6.6101156
418.625,51,-6.616630099999999,0.0076451624,-6.6089850000000006,-6.6180321,0.007194764100000001,-6.610837400000001
442.4,52,-6.6176009,0.0078889602,-6.609711900000001,-6.618856599999999,0.0073969585,-6.611459700000001
466.175,53,-6.6184771,0.00814584,-6.6103312999999995,-6.6195994,0.0076098405,-6.611989599999999
489.95,54,-6.6192649,0.008413459,-6.610851400000001,-6.6202659,0.0078315343,-6.6124344
513.725,55,-6.6199785,0.0086928397,-6.611285700000001,-6.620868700000001,0.0080628642,-6.6128058
537.5,56,-6.6206302,0.008985620699999999,-6.611644500000001,-6.6214182,0.0083052243,-6.613113
561.275,57,-6.6212235,0.0092908095,-6.6119327000000006,-6.6219177,0.008557824399999999,-6.6133599
585.05,58,-6.6217647,0.0096090318,-6.6121557,-6.6223727,0.0088211763,-6.6135515
608.825,59,-6.622258199999999,0.0099406484,-6.6123175000000005,-6.6227868,0.0090955697,-6.6136912
632.6,60,-6.6227058,0.010284747,-6.6124211,-6.6231619,0.0093802455,-6.6137817
656.375,61,-6.623110700000001,0.0106414,-6.6124693,-6.6235008,0.0096753306,-6.6138254000000005
680.15,62,-6.6234755000000005,0.011010601,-6.612464900000001,-6.6238056,0.0099808905,-6.6138247
703.925,63,-6.623801400000001,0.011391308999999999,-6.612410099999999,-6.624077799999999,0.010296073000000001,-6.6137817
727.7,64,-6.624090600000001,0.011783387,-6.6123072,-6.6243191999999995,0.010620758000000001,-6.6136984
751.475,65,-6.6243454,0.012187125,-6.6121582,-6.6245315,0.010955245,-6.613576299999999
775.25,66,-6.6245671,0.012601882,-6.6119652,-6.6247163,0.011298931000000002,-6.613417299999999
799.025,67,-6.624757300000001,0.013026419,-6.6117309,-6.6248746,0.011650866000000001,-6.613223700000001
822.8,68,-6.6249186,0.01346163,-6.611457000000001,-6.625008800000001,0.012011711000000001,-6.612997099999999
846.575,69,-6.6250542,0.013908358999999999,-6.6111458,-6.6251215,0.012382283999999999,-6.612739200000001
870.35,70,-6.6251663,0.014364647,-6.610801700000001,-6.6252146,0.012760957,-6.6124537
894.125,71,-6.6252575,0.01482811,-6.610429300000001,-6.625290299999999,0.013145776000000001,-6.6121445
917.9,72,-6.625329700000001,0.015297248999999999,-6.610032400000001,-6.625350200000001,0.01353553,-6.6118147
941.675,73,-6.6253844,0.015771631,-6.6096127000000005,-6.625395599999999,0.013929869,-6.611465700000001
965.45,74,-6.625422599999999,0.016250741000000003,-6.6091717999999995,-6.6254272,0.014328363,-6.6110989
989.225,75,-6.625445,0.016733922,-6.608711099999999,-6.6254459,0.014730451,-6.610715400000001
1013.0,76,-6.6254523,0.017220706000000002,-6.608231599999999,-6.625452,0.015135725,-6.6103163
